'Elapsed time','I','II','III','AVR','AVL','AVF','V1','V2','V3','V4','V5','V6'
'0:00.000',3.324,10.3,10.599,-4.975,-4.87,10.496,6.144,2.798,6.996,7.239,2.056,-1.181
'0:00.004',3.33,10.291,10.584,-4.974,-4.859,10.484,6.166,2.822,6.961,7.255,2.053,-1.205
'0:00.008',3.304,10.294,10.614,-4.963,-4.888,10.5,6.18,2.844,6.998,7.242,2.03,-1.238
'0:00.012',3.321,10.278,10.58,-4.963,-4.862,10.476,6.19,2.852,6.969,7.233,2.019,-1.257
'0:00.016',3.347,10.268,10.545,-4.971,-4.831,10.452,6.181,2.838,6.939,7.238,2.021,-1.251
'0:00.019',3.354,10.275,10.544,-4.978,-4.827,10.455,6.185,2.852,6.952,7.261,2.05,-1.214
'0:00.023',3.349,10.288,10.563,-4.982,-4.84,10.472,6.182,2.846,6.976,7.259,2.052,-1.214
'0:00.027',3.342,10.319,10.6,-4.994,-4.862,10.506,6.178,2.842,7.018,7.246,2.029,-1.243
'0:00.031',3.331,10.308,10.6,-4.984,-4.866,10.5,6.179,2.845,7.012,7.234,2.021,-1.249
'0:00.035',3.331,10.283,10.575,-4.971,-4.854,10.476,6.191,2.852,6.957,7.244,2.034,-1.232
'0:00.039',3.357,10.266,10.532,-4.975,-4.819,10.446,6.19,2.852,6.94,7.265,2.055,-1.214
'0:00.043',3.348,10.279,10.554,-4.977,-4.836,10.463,6.19,2.851,6.989,7.275,2.067,-1.193
'0:00.047',3.332,10.3,10.591,-4.98,-4.862,10.492,6.194,2.844,6.993,7.252,2.037,-1.234
'0:00.051',3.348,10.304,10.579,-4.989,-4.848,10.488,6.19,2.849,6.986,7.252,2.034,-1.246
'0:00.054',3.346,10.293,10.571,-4.983,-4.844,10.478,6.193,2.851,6.969,7.248,2.03,-1.246
'0:00.058',3.338,10.279,10.564,-4.972,-4.845,10.468,6.186,2.849,6.964,7.27,2.058,-1.208
'0:00.062',3.338,10.295,10.58,-4.98,-4.853,10.484,6.187,2.845,7.001,7.285,2.078,-1.18
'0:00.066',3.329,10.329,10.623,-4.992,-4.88,10.523,6.181,2.841,7.033,7.27,2.07,-1.191
'0:00.070',3.347,10.329,10.606,-5.002,-4.862,10.514,6.182,2.839,7.02,7.253,2.056,-1.208
'0:00.074',3.363,10.314,10.574,-5.002,-4.838,10.491,6.179,2.841,7.005,7.256,2.061,-1.194
'0:00.078',3.351,10.289,10.562,-4.984,-4.838,10.472,6.187,2.845,6.982,7.29,2.103,-1.155
'0:00.082',3.351,10.296,10.569,-4.987,-4.841,10.478,6.19,2.846,6.964,7.304,2.113,-1.138
'0:00.086',3.345,10.328,10.606,-5,-4.863,10.513,6.179,2.836,7.01,7.279,2.088,-1.168
'0:00.089',3.34,10.34,10.623,-5.004,-4.874,10.528,6.182,2.839,7.013,7.266,2.069,-1.192
'0:00.093',3.349,10.331,10.606,-5.004,-4.861,10.515,6.177,2.84,7.018,7.269,2.077,-1.182
'0:00.097',3.353,10.319,10.59,-4.999,-4.851,10.5,6.183,2.856,7.012,7.289,2.109,-1.145
'0:00.101',3.343,10.321,10.601,-4.995,-4.862,10.507,6.186,2.858,6.964,7.314,2.13,-1.117
'0:00.105',3.322,10.343,10.645,-4.996,-4.893,10.54,6.185,2.847,7.033,7.304,2.118,-1.137
'0:00.109',3.328,10.358,10.654,-5.007,-4.895,10.552,6.179,2.843,7.037,7.288,2.093,-1.162
'0:00.113',3.346,10.352,10.629,-5.012,-4.874,10.537,6.18,2.846,7.043,7.288,2.091,-1.163
'0:00.117',3.352,10.332,10.604,-5.006,-4.859,10.515,6.186,2.863,7.01,7.313,2.12,-1.133
'0:00.121',3.345,10.347,10.625,-5.01,-4.872,10.532,6.183,2.859,7.028,7.332,2.15,-1.091
'0:00.125',3.32,10.353,10.656,-5,-4.9,10.55,6.198,2.883,7.02,7.347,2.163,-1.08
'0:00.128',3.346,10.37,10.647,-5.021,-4.883,10.555,6.186,2.871,7.049,7.331,2.143,-1.096
'0:00.132',3.37,10.368,10.622,-5.033,-4.858,10.541,6.183,2.868,7.061,7.331,2.148,-1.093
'0:00.136',3.373,10.353,10.603,-5.026,-4.847,10.524,6.186,2.886,7.045,7.346,2.168,-1.067
'0:00.140',3.36,10.355,10.619,-5.021,-4.862,10.533,6.192,2.888,7.034,7.373,2.192,-1.04
'0:00.144',3.355,10.386,10.654,-5.035,-4.882,10.567,6.2,2.904,7.04,7.397,2.223,-1.026
'0:00.148',3.323,10.397,10.697,-5.023,-4.919,10.594,6.21,2.908,7.066,7.387,2.202,-1.049
'0:00.152',3.357,10.394,10.66,-5.039,-4.884,10.573,6.213,2.921,7.088,7.392,2.198,-1.055
'0:00.156',3.385,10.383,10.622,-5.048,-4.85,10.549,6.217,2.938,7.054,7.418,2.224,-1.027
'0:00.160',3.385,10.388,10.626,-5.05,-4.853,10.553,6.227,2.952,7.053,7.446,2.254,-0.988
'0:00.163',3.372,10.398,10.649,-5.048,-4.871,10.57,6.229,2.964,7.083,7.455,2.266,-0.984
'0:00.167',3.366,10.425,10.682,-5.059,-4.89,10.599,6.237,2.975,7.079,7.459,2.255,-1.015
'0:00.171',3.363,10.416,10.676,-5.053,-4.889,10.593,6.24,2.984,7.087,7.455,2.243,-1.028
'0:00.175',3.374,10.405,10.655,-5.053,-4.873,10.576,6.253,3.003,7.061,7.486,2.264,-1.005
'0:00.179',3.388,10.388,10.623,-5.052,-4.85,10.552,6.256,3.023,7.041,7.52,2.302,-0.974
'0:00.183',3.39,10.416,10.649,-5.066,-4.862,10.579,6.264,3.041,7.065,7.54,2.325,-0.96
'0:00.187',3.397,10.443,10.67,-5.084,-4.868,10.602,6.271,3.051,7.077,7.539,2.31,-0.99
'0:00.191',3.402,10.431,10.653,-5.08,-4.858,10.589,6.276,3.067,7.065,7.544,2.308,-1.011
'0:00.195',3.388,10.418,10.653,-5.066,-4.865,10.582,6.297,3.093,7.061,7.575,2.329,-0.999
'0:00.198',3.393,10.398,10.628,-5.059,-4.85,10.559,6.311,3.122,7.083,7.615,2.364,-0.963
'0:00.202',3.406,10.412,10.629,-5.073,-4.843,10.567,6.315,3.133,7.037,7.63,2.37,-0.963
'0:00.206',3.423,10.42,10.621,-5.085,-4.831,10.567,6.312,3.136,7.071,7.619,2.343,-1.013
'0:00.210',3.404,10.407,10.626,-5.069,-4.843,10.563,6.32,3.147,7.109,7.618,2.32,-1.039
'0:00.214',3.417,10.395,10.601,-5.069,-4.824,10.545,6.33,3.165,7.027,7.63,2.329,-1.045
'0:00.218',3.444,10.375,10.554,-5.073,-4.788,10.511,6.336,3.18,6.999,7.655,2.363,-1.022
'0:00.222',3.443,10.375,10.555,-5.072,-4.789,10.511,6.34,3.186,7.044,7.677,2.372,-1.022
'0:00.226',3.426,10.379,10.577,-5.066,-4.808,10.524,6.343,3.186,7.011,7.67,2.357,-1.056
'0:00.230',3.426,10.375,10.573,-5.063,-4.806,10.52,6.356,3.198,7.01,7.674,2.342,-1.079
'0:00.233',3.418,10.343,10.549,-5.044,-4.797,10.492,6.351,3.191,7.016,7.669,2.332,-1.092
'0:00.237',3.472,10.321,10.473,-5.06,-4.733,10.443,6.34,3.183,6.96,7.668,2.332,-1.099
'0:00.241',3.435,10.308,10.497,-5.036,-4.763,10.449,6.347,3.181,6.991,7.685,2.337,-1.097
'0:00.245',3.441,10.316,10.499,-5.042,-4.761,10.453,6.335,3.161,6.977,7.654,2.299,-1.142
'0:00.249',3.445,10.308,10.487,-5.04,-4.753,10.444,6.326,3.138,6.979,7.607,2.244,-1.207
'0:00.253',3.43,10.278,10.471,-5.017,-4.752,10.421,6.327,3.13,6.975,7.578,2.21,-1.247
'0:00.257',3.426,10.248,10.446,-5,-4.743,10.393,6.326,3.121,6.966,7.574,2.21,-1.242
'0:00.261',3.43,10.244,10.437,-5.001,-4.736,10.387,6.315,3.117,6.909,7.572,2.21,-1.238
'0:00.265',3.414,10.258,10.468,-5,-4.759,10.409,6.301,3.093,6.939,7.53,2.173,-1.269
'0:00.268',3.409,10.263,10.477,-5,-4.767,10.417,6.301,3.074,6.973,7.492,2.127,-1.318
'0:00.272',3.416,10.239,10.447,-4.991,-4.747,10.389,6.3,3.065,6.922,7.465,2.109,-1.332
'0:00.276',3.417,10.22,10.427,-4.982,-4.737,10.37,6.302,3.067,6.938,7.462,2.108,-1.325
'0:00.280',3.421,10.218,10.421,-4.983,-4.732,10.366,6.3,3.061,6.906,7.466,2.117,-1.306
'0:00.284',3.396,10.23,10.457,-4.976,-4.763,10.39,6.301,3.057,6.949,7.447,2.107,-1.323
'0:00.288',3.381,10.25,10.492,-4.979,-4.788,10.417,6.292,3.031,6.968,7.41,2.066,-1.365
'0:00.292',3.394,10.23,10.459,-4.975,-4.765,10.391,6.279,3.023,6.957,7.389,2.046,-1.384
'0:00.296',3.407,10.214,10.43,-4.974,-4.744,10.369,6.279,3.017,6.921,7.385,2.051,-1.369
'0:00.300',3.399,10.197,10.422,-4.962,-4.744,10.355,6.278,3.012,6.919,7.391,2.061,-1.352
'0:00.304',3.391,10.199,10.431,-4.959,-4.752,10.361,6.28,3.011,6.938,7.386,2.062,-1.35
'0:00.307',3.375,10.227,10.476,-4.964,-4.783,10.398,6.278,3,6.958,7.372,2.04,-1.38
'0:00.311',3.391,10.224,10.456,-4.971,-4.765,10.386,6.277,3.001,6.912,7.353,2.017,-1.402
'0:00.315',3.378,10.198,10.444,-4.951,-4.766,10.367,6.275,3,6.931,7.362,2.029,-1.385
'0:00.319',3.378,10.188,10.433,-4.947,-4.76,10.357,6.274,3.001,6.918,7.371,2.047,-1.366
'0:00.323',3.379,10.204,10.448,-4.955,-4.767,10.372,6.268,2.997,6.939,7.366,2.047,-1.364
'0:00.327',3.361,10.229,10.491,-4.959,-4.797,10.406,6.265,2.987,6.95,7.343,2.012,-1.401
'0:00.331',3.379,10.224,10.468,-4.965,-4.776,10.392,6.263,2.98,6.887,7.333,1.998,-1.413
'0:00.335',3.383,10.213,10.453,-4.962,-4.768,10.379,6.266,2.988,6.908,7.34,2.009,-1.398
'0:00.339',3.4,10.207,10.43,-4.966,-4.747,10.365,6.271,2.999,6.902,7.369,2.045,-1.352
'0:00.342',3.393,10.213,10.444,-4.966,-4.758,10.375,6.275,2.999,6.915,7.372,2.055,-1.353
'0:00.346',3.388,10.229,10.464,-4.972,-4.77,10.393,6.279,2.999,6.944,7.371,2.039,-1.374
'0:00.350',3.399,10.234,10.459,-4.98,-4.763,10.393,6.268,2.99,6.939,7.351,2.018,-1.406
'0:00.354',3.397,10.22,10.447,-4.972,-4.757,10.379,6.271,2.993,6.899,7.352,2.023,-1.39
'0:00.358',3.402,10.199,10.42,-4.964,-4.741,10.355,6.274,3,6.923,7.371,2.046,-1.367
'0:00.362',3.387,10.207,10.444,-4.961,-4.761,10.372,6.276,3.01,6.928,7.384,2.058,-1.349
'0:00.366',3.358,10.232,10.498,-4.959,-4.802,10.411,6.28,3.007,6.968,7.378,2.044,-1.376
'0:00.370',3.337,10.228,10.514,-4.946,-4.82,10.417,6.285,3.01,6.935,7.371,2.035,-1.387
'0:00.374',3.392,10.218,10.45,-4.968,-4.761,10.38,6.272,3.001,6.946,7.357,2.026,-1.395
'0:00.377',3.423,10.194,10.395,-4.972,-4.719,10.341,6.259,2.988,6.911,7.363,2.032,-1.378
'0:00.381',3.397,10.2,10.427,-4.962,-4.747,10.359,6.268,3.001,6.931,7.383,2.052,-1.35
'0:00.385',3.384,10.211,10.451,-4.962,-4.766,10.378,6.27,2.993,6.947,7.368,2.036,-1.378
'0:00.389',3.378,10.234,10.48,-4.969,-4.784,10.403,6.27,2.998,6.959,7.352,2.018,-1.394
'0:00.393',3.39,10.216,10.45,-4.966,-4.762,10.379,6.27,3.002,6.923,7.349,2.016,-1.404
'0:00.397',3.392,10.201,10.432,-4.96,-4.752,10.363,6.28,3.012,6.926,7.364,2.038,-1.375
'0:00.401',3.392,10.197,10.428,-4.958,-4.75,10.359,6.28,3.012,6.936,7.378,2.043,-1.361
'0:00.405',3.396,10.221,10.449,-4.972,-4.759,10.381,6.276,3.017,6.951,7.37,2.038,-1.378
'0:00.409',3.388,10.232,10.468,-4.974,-4.772,10.397,6.279,3.014,6.948,7.35,2.018,-1.405
'0:00.412',3.4,10.234,10.458,-4.981,-4.762,10.393,6.273,3.007,6.939,7.354,2.018,-1.402
'0:00.416',3.397,10.197,10.424,-4.961,-4.745,10.356,6.276,3.017,6.926,7.359,2.033,-1.377
'0:00.420',3.373,10.191,10.442,-4.945,-4.767,10.363,6.283,3.018,6.919,7.383,2.059,-1.338
'0:00.424',3.378,10.212,10.458,-4.959,-4.772,10.381,6.285,3.015,6.953,7.373,2.053,-1.351
'0:00.428',3.388,10.226,10.461,-4.97,-4.768,10.39,6.272,3.002,6.946,7.342,2.016,-1.392
'0:00.432',3.401,10.216,10.439,-4.972,-4.751,10.374,6.265,2.999,6.912,7.335,2.008,-1.401
'0:00.436',3.388,10.188,10.424,-4.952,-4.75,10.353,6.27,3.002,6.939,7.342,2.027,-1.383
'0:00.440',3.38,10.185,10.428,-4.946,-4.756,10.354,6.275,3.006,6.919,7.358,2.043,-1.354
'0:00.444',3.377,10.201,10.448,-4.952,-4.768,10.371,6.273,2.998,6.989,7.356,2.035,-1.368
'0:00.447',3.372,10.223,10.475,-4.961,-4.784,10.395,6.271,2.999,6.946,7.335,2.012,-1.398
'0:00.451',3.396,10.218,10.446,-4.97,-4.757,10.378,6.275,2.991,6.937,7.32,2,-1.411
'0:00.455',3.409,10.199,10.413,-4.967,-4.734,10.353,6.266,2.996,6.891,7.329,2.014,-1.395
'0:00.459',3.403,10.195,10.415,-4.963,-4.738,10.352,6.27,3.001,6.901,7.345,2.043,-1.365
'0:00.463',3.404,10.211,10.43,-4.971,-4.745,10.367,6.269,3.002,6.935,7.353,2.049,-1.354
'0:00.467',3.383,10.227,10.467,-4.968,-4.774,10.393,6.266,2.984,6.943,7.329,2.018,-1.388
'0:00.471',3.391,10.222,10.454,-4.97,-4.764,10.384,6.271,2.994,6.919,7.317,2.001,-1.411
'0:00.475',3.378,10.207,10.451,-4.956,-4.768,10.376,6.272,2.988,6.906,7.321,2.004,-1.39
'0:00.479',3.378,10.195,10.441,-4.95,-4.764,10.364,6.279,3.002,6.925,7.344,2.038,-1.361
'0:00.482',3.383,10.19,10.43,-4.95,-4.756,10.356,6.274,2.993,6.921,7.351,2.047,-1.344
'0:00.486',3.39,10.207,10.44,-4.962,-4.757,10.37,6.261,2.985,6.912,7.325,2.02,-1.376
'0:00.490',3.38,10.211,10.454,-4.96,-4.769,10.379,6.263,2.979,6.915,7.311,2.009,-1.393
'0:00.494',3.385,10.196,10.434,-4.954,-4.757,10.361,6.263,2.984,6.925,7.315,2.014,-1.385
'0:00.498',3.378,10.178,10.424,-4.941,-4.755,10.347,6.27,2.994,6.888,7.344,2.043,-1.354
'0:00.502',3.381,10.18,10.422,-4.944,-4.752,10.347,6.264,2.982,6.911,7.347,2.058,-1.345
'0:00.506',3.387,10.21,10.447,-4.963,-4.762,10.375,6.256,2.974,6.938,7.329,2.034,-1.375
'0:00.510',3.376,10.208,10.456,-4.956,-4.772,10.378,6.259,2.977,6.915,7.311,2.012,-1.395
'0:00.514',3.376,10.188,10.436,-4.945,-4.763,10.358,6.258,2.981,6.898,7.31,2.012,-1.389
'0:00.518',3.39,10.195,10.428,-4.956,-4.751,10.358,6.264,2.987,6.915,7.331,2.037,-1.351
'0:00.521',3.378,10.217,10.462,-4.962,-4.774,10.386,6.272,2.99,6.945,7.366,2.071,-1.322
'0:00.525',3.384,10.262,10.501,-4.987,-4.791,10.428,6.277,2.994,6.925,7.359,2.068,-1.336
'0:00.529',3.382,10.261,10.502,-4.986,-4.793,10.428,6.274,2.986,6.939,7.341,2.048,-1.362
'0:00.533',3.403,10.281,10.501,-5.006,-4.781,10.438,6.286,3.001,6.962,7.353,2.056,-1.351
'0:00.537',3.42,10.254,10.457,-5,-4.751,10.402,6.289,3.007,6.952,7.366,2.074,-1.33
'0:00.541',3.4,10.263,10.487,-4.995,-4.776,10.422,6.29,3.012,6.934,7.389,2.095,-1.294
'0:00.545',3.396,10.295,10.523,-5.009,-4.795,10.455,6.272,3.002,6.986,7.386,2.087,-1.319
'0:00.549',3.412,10.328,10.539,-5.034,-4.795,10.479,6.244,2.981,7.012,7.371,2.068,-1.337
'0:00.553',3.403,10.319,10.539,-5.025,-4.8,10.476,6.235,2.962,7.004,7.358,2.064,-1.337
'0:00.556',3.381,10.285,10.527,-4.997,-4.805,10.452,6.246,2.969,7.009,7.382,2.091,-1.305
'0:00.560',3.387,10.28,10.516,-4.997,-4.796,10.444,6.236,2.968,7.001,7.393,2.112,-1.275
'0:00.564',3.39,10.3,10.533,-5.009,-4.804,10.463,6.235,2.961,6.982,7.386,2.107,-1.285
'0:00.568',3.397,10.325,10.551,-5.024,-4.81,10.484,6.239,2.966,7.014,7.384,2.099,-1.3
'0:00.572',3.42,10.305,10.509,-5.026,-4.777,10.453,6.242,2.983,6.968,7.391,2.104,-1.305
'0:00.576',3.427,10.255,10.451,-5.004,-4.744,10.4,6.242,2.987,6.954,7.389,2.107,-1.291
'0:00.580',3.409,10.227,10.441,-4.982,-4.748,10.38,6.24,2.973,6.954,7.386,2.11,-1.276
'0:00.584',3.398,10.236,10.462,-4.981,-4.765,10.396,6.24,2.972,6.945,7.388,2.106,-1.282
'0:00.588',3.402,10.254,10.475,-4.991,-4.768,10.41,6.232,2.963,6.978,7.354,2.068,-1.325
'0:00.591',3.419,10.238,10.443,-4.992,-4.744,10.387,6.236,2.966,6.939,7.352,2.063,-1.33
'0:00.595',3.402,10.223,10.444,-4.976,-4.753,10.379,6.25,2.978,6.957,7.369,2.085,-1.319
'0:00.599',3.388,10.207,10.442,-4.961,-4.759,10.371,6.263,2.992,6.933,7.384,2.106,-1.283
'0:00.603',3.398,10.219,10.445,-4.972,-4.756,10.378,6.252,2.98,6.935,7.373,2.099,-1.292
'0:00.607',3.377,10.219,10.466,-4.962,-4.777,10.389,6.244,2.964,6.953,7.339,2.059,-1.339
'0:00.611',3.382,10.21,10.451,-4.96,-4.767,10.378,6.25,2.961,6.936,7.314,2.027,-1.373
'0:00.615',3.396,10.179,10.406,-4.951,-4.738,10.339,6.244,2.96,6.921,7.314,2.029,-1.37
'0:00.619',3.366,10.163,10.421,-4.928,-4.76,10.338,6.253,2.977,6.915,7.338,2.062,-1.324
'0:00.623',3.362,10.175,10.436,-4.932,-4.769,10.352,6.254,2.975,6.92,7.342,2.063,-1.323
'0:00.626',3.392,10.197,10.428,-4.958,-4.75,10.359,6.24,2.957,6.9,7.315,2.037,-1.359
'0:00.630',3.393,10.199,10.429,-4.96,-4.75,10.36,6.243,2.965,6.955,7.311,2.025,-1.377
'0:00.634',3.379,10.176,10.42,-4.941,-4.752,10.344,6.242,2.962,6.91,7.313,2.024,-1.375
'0:00.638',3.393,10.17,10.401,-4.945,-4.736,10.331,6.247,2.966,6.901,7.331,2.055,-1.34
'0:00.642',3.406,10.179,10.396,-4.956,-4.727,10.333,6.25,2.977,6.906,7.338,2.064,-1.328
'0:00.646',3.382,10.197,10.438,-4.953,-4.76,10.364,6.256,2.968,6.945,7.325,2.043,-1.355
'0:00.650',3.378,10.203,10.448,-4.954,-4.767,10.372,6.253,2.967,6.939,7.31,2.031,-1.376
'0:00.654',3.39,10.18,10.413,-4.948,-4.744,10.343,6.253,2.968,6.937,7.308,2.029,-1.366
'0:00.658',3.379,10.154,10.398,-4.93,-4.742,10.322,6.256,2.981,6.899,7.331,2.055,-1.338
'0:00.661',3.371,10.16,10.413,-4.929,-4.753,10.333,6.256,2.978,6.903,7.344,2.066,-1.32
'0:00.665',3.377,10.186,10.433,-4.945,-4.761,10.356,6.248,2.97,6.915,7.325,2.05,-1.346
'0:00.669',3.378,10.196,10.442,-4.95,-4.765,10.365,6.247,2.969,6.919,7.305,2.024,-1.378
'0:00.673',3.388,10.188,10.424,-4.952,-4.75,10.353,6.25,2.965,6.908,7.308,2.023,-1.377
'0:00.677',3.379,10.167,10.411,-4.937,-4.748,10.335,6.249,2.968,6.902,7.325,2.044,-1.347
'0:00.681',3.389,10.167,10.402,-4.941,-4.739,10.33,6.255,2.973,6.939,7.347,2.067,-1.321
'0:00.685',3.398,10.197,10.423,-4.961,-4.744,10.356,6.262,2.987,6.912,7.341,2.065,-1.332
'0:00.689',3.387,10.201,10.437,-4.958,-4.757,10.365,6.279,3.003,6.894,7.306,2.012,-1.397
'0:00.693',3.39,10.165,10.399,-4.941,-4.737,10.329,6.316,3.051,6.893,7.266,1.946,-1.476
'0:00.696',3.409,10.126,10.34,-4.931,-4.697,10.28,6.339,3.115,6.855,7.335,1.992,-1.451
'0:00.700',3.446,10.087,10.265,-4.93,-4.642,10.223,6.363,3.203,6.797,7.451,2.081,-1.406
'0:00.704',3.471,10.102,10.255,-4.95,-4.624,10.225,6.395,3.268,6.805,7.659,2.223,-1.344
'0:00.708',3.535,10.163,10.252,-5.012,-4.591,10.254,6.348,3.254,6.849,8.05,2.55,-1.151
'0:00.712',3.608,10.22,10.235,-5.078,-4.546,10.274,6.232,3.157,6.879,8.544,3.035,-0.801
'0:00.716',3.671,10.318,10.271,-5.158,-4.532,10.341,6.062,2.943,6.906,9.036,3.575,-0.368
'0:00.720',3.672,10.428,10.379,-5.214,-4.586,10.451,5.89,2.702,6.96,9.5,4.088,0.042
'0:00.724',3.592,10.549,10.581,-5.234,-4.727,10.612,5.776,2.483,7.085,9.615,4.2,0.173
'0:00.728',3.494,10.603,10.733,-5.212,-4.852,10.715,5.676,2.306,7.168,9.385,4.034,0.154
'0:00.732',3.381,10.505,10.747,-5.107,-4.915,10.672,5.564,2.068,7.17,8.101,3.21,-0.188
'0:00.735',3.284,10.454,10.793,-5.033,-4.987,10.671,5.59,2.046,7.111,6.862,2.152,-0.773
'0:00.739',3.26,10.367,10.73,-4.977,-4.967,10.595,5.627,2.138,7.055,6.817,1.995,-0.945
'0:00.743',3.275,10.378,10.726,-4.989,-4.958,10.598,5.695,2.25,7.091,6.956,2.061,-0.945
'0:00.747',3.28,10.369,10.713,-4.988,-4.949,10.587,5.791,2.376,7.07,7.012,2.051,-1.012
'0:00.751',3.256,10.359,10.727,-4.971,-4.968,10.59,5.913,2.517,7.055,7.063,2.047,-1.058
'0:00.755',3.281,10.353,10.695,-4.981,-4.939,10.57,5.995,2.622,7.047,7.129,2.074,-1.064
'0:00.759',3.327,10.344,10.641,-4.999,-4.89,10.539,6.057,2.702,7.042,7.208,2.117,-1.035
'0:00.763',3.346,10.376,10.653,-5.024,-4.886,10.561,6.061,2.704,7.061,7.241,2.145,-1.036
'0:00.767',3.315,10.399,10.707,-5.02,-4.928,10.599,6.088,2.726,7.064,7.248,2.118,-1.09
'0:00.770',3.312,10.373,10.684,-5.006,-4.918,10.574,6.115,2.752,7.071,7.227,2.065,-1.169
'0:00.774',3.31,10.322,10.635,-4.98,-4.894,10.524,6.138,2.786,7.016,7.226,2.055,-1.189
'0:00.778',3.348,10.284,10.56,-4.98,-4.839,10.469,6.154,2.814,6.99,7.248,2.061,-1.186
'0:00.782',3.343,10.278,10.558,-4.974,-4.84,10.464,6.165,2.834,6.978,7.266,2.074,-1.188
'0:00.786',3.349,10.306,10.581,-4.991,-4.848,10.49,6.172,2.84,6.963,7.256,2.057,-1.213
'0:00.790',3.353,10.305,10.575,-4.992,-4.843,10.486,6.173,2.838,7,7.236,2.033,-1.245
'0:00.794',3.341,10.288,10.571,-4.978,-4.847,10.476,6.175,2.841,7.011,7.241,2.035,-1.243
'0:00.798',3.35,10.272,10.546,-4.974,-4.83,10.455,6.182,2.85,6.979,7.261,2.053,-1.219
'0:00.802',3.337,10.276,10.562,-4.97,-4.844,10.465,6.181,2.85,6.97,7.278,2.077,-1.186
'0:00.805',3.337,10.295,10.581,-4.98,-4.854,10.484,6.182,2.846,7.02,7.267,2.065,-1.207
'0:00.809',3.336,10.304,10.591,-4.984,-4.86,10.494,6.178,2.846,6.992,7.25,2.044,-1.232
'0:00.813',3.336,10.289,10.576,-4.976,-4.852,10.479,6.18,2.843,7.011,7.253,2.043,-1.227
'0:00.817',3.348,10.27,10.546,-4.972,-4.831,10.454,6.181,2.85,6.993,7.27,2.073,-1.194
'0:00.821',3.354,10.275,10.545,-4.978,-4.828,10.456,6.183,2.852,6.971,7.286,2.091,-1.164
'0:00.825',3.352,10.301,10.573,-4.989,-4.842,10.483,6.181,2.849,7.006,7.282,2.083,-1.178
'0:00.829',3.328,10.314,10.61,-4.985,-4.873,10.508,6.184,2.842,7.029,7.267,2.064,-1.203
'0:00.833',3.335,10.303,10.591,-4.983,-4.86,10.493,6.183,2.841,7.027,7.259,2.061,-1.204
'0:00.837',3.348,10.293,10.569,-4.984,-4.842,10.477,6.187,2.844,7.022,7.275,2.09,-1.173
'0:00.840',3.342,10.288,10.57,-4.979,-4.846,10.476,6.182,2.844,7.021,7.296,2.107,-1.15
'0:00.844',3.342,10.318,10.599,-4.993,-4.861,10.505,6.183,2.852,7.025,7.292,2.1,-1.147
'0:00.848',3.343,10.342,10.622,-5.006,-4.872,10.528,6.179,2.841,7.046,7.268,2.069,-1.187
'0:00.852',3.339,10.325,10.609,-4.995,-4.867,10.513,6.172,2.841,7.049,7.267,2.076,-1.185
'0:00.856',3.345,10.317,10.596,-4.994,-4.858,10.502,6.177,2.845,7.024,7.283,2.093,-1.151
'0:00.860',3.341,10.311,10.594,-4.989,-4.859,10.499,6.181,2.85,7.019,7.305,2.124,-1.122
'0:00.864',3.34,10.33,10.614,-4.999,-4.869,10.519,6.177,2.84,7.084,7.301,2.112,-1.13
'0:00.868',3.336,10.354,10.642,-5.009,-4.885,10.545,6.172,2.835,7.063,7.289,2.102,-1.15
'0:00.872',3.335,10.352,10.64,-5.007,-4.885,10.542,6.183,2.849,7.056,7.293,2.104,-1.151
'0:00.875',3.342,10.338,10.62,-5.004,-4.871,10.525,6.172,2.844,7.03,7.301,2.121,-1.127
'0:00.879',3.341,10.317,10.599,-4.992,-4.862,10.504,6.178,2.852,7.024,7.329,2.146,-1.093
'0:00.883',3.344,10.341,10.621,-5.006,-4.87,10.527,6.182,2.853,7.025,7.328,2.159,-1.086
'0:00.887',3.339,10.371,10.655,-5.018,-4.89,10.559,6.175,2.845,7.06,7.316,2.134,-1.105
'0:00.891',3.338,10.36,10.646,-5.012,-4.886,10.549,6.178,2.852,7.057,7.302,2.129,-1.114
'0:00.895',3.341,10.343,10.625,-5.006,-4.874,10.53,6.185,2.86,7.025,7.323,2.148,-1.086
'0:00.899',3.333,10.348,10.638,-5.004,-4.885,10.539,6.196,2.883,7.061,7.358,2.194,-1.031
'0:00.903',3.338,10.353,10.638,-5.009,-4.882,10.542,6.188,2.877,7.023,7.365,2.198,-1.03
'0:00.907',3.362,10.388,10.649,-5.038,-4.876,10.565,6.18,2.873,7.055,7.347,2.179,-1.059
'0:00.911',3.357,10.393,10.659,-5.038,-4.883,10.573,6.184,2.882,7.064,7.348,2.175,-1.064
'0:00.914',3.356,10.383,10.65,-5.034,-4.879,10.563,6.189,2.893,7.065,7.368,2.191,-1.037
'0:00.918',3.368,10.376,10.631,-5.036,-4.864,10.549,6.2,2.907,7.037,7.402,2.237,-0.991
'0:00.922',3.355,10.391,10.659,-5.037,-4.884,10.572,6.21,2.925,7.072,7.427,2.256,-0.964
'0:00.926',3.351,10.411,10.684,-5.044,-4.899,10.594,6.208,2.924,7.061,7.423,2.246,-0.994
'0:00.930',3.374,10.423,10.672,-5.061,-4.882,10.594,6.213,2.935,7.066,7.415,2.237,-1.003
'0:00.934',3.378,10.408,10.654,-5.057,-4.87,10.577,6.222,2.953,7.059,7.435,2.255,-0.997
'0:00.938',3.378,10.389,10.634,-5.047,-4.86,10.558,6.235,2.974,7.028,7.47,2.287,-0.958
'0:00.942',3.38,10.409,10.652,-5.059,-4.868,10.577,6.241,2.994,7.051,7.494,2.308,-0.932
'0:00.946',3.364,10.43,10.69,-5.061,-4.895,10.606,6.246,3.001,7.088,7.496,2.303,-0.957
'0:00.949',3.372,10.438,10.69,-5.068,-4.891,10.61,6.254,3.019,7.11,7.499,2.298,-0.973
'0:00.953',3.376,10.423,10.671,-5.062,-4.88,10.593,6.26,3.033,7.077,7.514,2.305,-0.961
'0:00.957',3.4,10.42,10.644,-5.073,-4.854,10.578,6.269,3.059,7.084,7.547,2.353,-0.927
'0:00.961',3.385,10.411,10.649,-5.061,-4.865,10.576,6.282,3.075,7.088,7.576,2.369,-0.915
'0:00.965',3.388,10.429,10.665,-5.072,-4.87,10.594,6.288,3.089,7.041,7.584,2.361,-0.93
'0:00.969',3.38,10.436,10.679,-5.072,-4.882,10.604,6.291,3.1,7.073,7.573,2.344,-0.965
'0:00.973',3.402,10.422,10.644,-5.075,-4.853,10.579,6.3,3.116,7.061,7.584,2.343,-0.974
'0:00.977',3.42,10.402,10.606,-5.075,-4.825,10.55,6.313,3.139,7.061,7.614,2.366,-0.955
'0:00.981',3.422,10.396,10.598,-5.072,-4.82,10.543,6.319,3.159,7.073,7.64,2.396,-0.936
'0:00.984',3.412,10.414,10.625,-5.077,-4.839,10.566,6.333,3.18,7.037,7.653,2.391,-0.951
'0:00.988',3.418,10.427,10.633,-5.086,-4.84,10.576,6.335,3.186,7.045,7.634,2.365,-0.997
'0:00.992',3.443,10.42,10.6,-5.095,-4.811,10.556,6.341,3.201,7.036,7.638,2.361,-1.014
'0:00.996',3.452,10.389,10.56,-5.085,-4.786,10.521,6.345,3.2,7.033,7.663,2.378,-1.007
'0:01.000',3.434,10.364,10.553,-5.062,-4.792,10.505,6.349,3.209,7.036,7.683,2.387,-0.997
'0:01.004',3.449,10.373,10.548,-5.074,-4.782,10.506,6.341,3.2,7.031,7.681,2.383,-1.021
'0:01.008',3.428,10.374,10.569,-5.064,-4.802,10.518,6.343,3.196,7.046,7.667,2.353,-1.062
'0:01.012',3.445,10.352,10.53,-5.061,-4.775,10.487,6.335,3.182,7.005,7.65,2.329,-1.107
'0:01.016',3.454,10.313,10.482,-5.047,-4.746,10.444,6.327,3.176,6.99,7.653,2.327,-1.107
'0:01.019',3.46,10.291,10.454,-5.039,-4.729,10.419,6.325,3.17,6.987,7.656,2.329,-1.101
'0:01.023',3.456,10.296,10.463,-5.039,-4.736,10.426,6.321,3.16,6.979,7.642,2.304,-1.128
'0:01.027',3.438,10.306,10.492,-5.036,-4.759,10.446,6.314,3.139,6.979,7.601,2.255,-1.187
'0:01.031',3.445,10.289,10.468,-5.031,-4.744,10.425,6.304,3.121,6.943,7.561,2.216,-1.226
'0:01.035',3.444,10.26,10.44,-5.015,-4.73,10.397,6.302,3.11,6.936,7.546,2.207,-1.234
'0:01.039',3.443,10.239,10.42,-5.005,-4.72,10.376,6.305,3.109,6.928,7.543,2.21,-1.222
'0:01.043',3.423,10.241,10.442,-4.995,-4.742,10.388,6.298,3.086,6.939,7.521,2.183,-1.24
'0:01.047',3.427,10.253,10.449,-5.004,-4.743,10.397,6.283,3.07,6.95,7.476,2.143,-1.281
'0:01.051',3.403,10.249,10.469,-4.989,-4.765,10.405,6.29,3.061,6.938,7.451,2.109,-1.316
'0:01.054',3.417,10.216,10.423,-4.98,-4.735,10.366,6.274,3.042,6.902,7.422,2.096,-1.33
'0:01.058',3.42,10.207,10.41,-4.977,-4.727,10.354,6.279,3.041,6.915,7.431,2.109,-1.307
'0:01.062',3.402,10.203,10.424,-4.966,-4.743,10.359,6.279,3.037,6.91,7.428,2.11,-1.303
'0:01.066',3.414,10.229,10.438,-4.985,-4.744,10.379,6.269,3.019,6.945,7.399,2.075,-1.332
'0:01.070',3.404,10.232,10.451,-4.982,-4.755,10.387,6.264,3.006,6.953,7.374,2.049,-1.361
'0:01.074',3.394,10.203,10.432,-4.962,-4.751,10.364,6.262,3.007,6.938,7.358,2.042,-1.366
'0:01.078',3.39,10.183,10.416,-4.95,-4.745,10.346,6.267,3.002,6.895,7.375,2.061,-1.332
'0:01.082',3.402,10.195,10.416,-4.963,-4.739,10.352,6.259,3,6.914,7.378,2.068,-1.327
'0:01.086',3.384,10.208,10.448,-4.96,-4.764,10.375,6.256,2.985,6.933,7.353,2.046,-1.356
'0:01.089',3.371,10.21,10.463,-4.954,-4.778,10.383,6.254,2.982,6.949,7.335,2.026,-1.38
'0:01.093',3.408,10.214,10.429,-4.975,-4.743,10.368,6.254,2.985,6.939,7.338,2.033,-1.372
'0:01.097',3.402,10.195,10.417,-4.962,-4.74,10.353,6.255,2.988,6.939,7.352,2.053,-1.347
'0:01.101',3.395,10.194,10.423,-4.958,-4.746,10.354,6.256,2.987,6.951,7.365,2.061,-1.323
'0:01.105',3.407,10.225,10.441,-4.98,-4.749,10.379,6.258,2.988,6.91,7.356,2.058,-1.342
'0:01.109',3.39,10.226,10.459,-4.971,-4.767,10.389,6.255,2.981,6.915,7.33,2.028,-1.38
'0:01.113',3.395,10.212,10.441,-4.967,-4.755,10.373,6.254,2.981,6.934,7.327,2.019,-1.374
'0:01.117',3.41,10.202,10.415,-4.969,-4.735,10.354,6.259,2.991,6.9,7.34,2.041,-1.348
'0:01.121',3.4,10.193,10.417,-4.96,-4.741,10.352,6.256,2.986,6.917,7.358,2.057,-1.331
'0:01.125',3.383,10.212,10.452,-4.962,-4.767,10.378,6.26,2.986,6.938,7.359,2.054,-1.343
'0:01.128',3.376,10.223,10.471,-4.963,-4.78,10.393,6.258,2.982,6.935,7.34,2.032,-1.371
'0:01.132',3.383,10.213,10.453,-4.962,-4.768,10.379,6.261,2.983,6.927,7.328,2.019,-1.378
'0:01.136',3.405,10.201,10.419,-4.966,-4.739,10.356,6.256,2.983,6.907,7.346,2.041,-1.36
'0:01.140',3.403,10.197,10.417,-4.963,-4.739,10.354,6.261,2.999,6.899,7.367,2.066,-1.331
'0:01.144',3.392,10.215,10.447,-4.967,-4.76,10.378,6.262,3,6.946,7.369,2.062,-1.334
'0:01.148',3.39,10.233,10.467,-4.975,-4.77,10.397,6.256,2.991,6.908,7.345,2.032,-1.374
'0:01.152',3.399,10.226,10.451,-4.976,-4.758,10.384,6.256,2.995,6.949,7.34,2.028,-1.378
'0:01.156',3.392,10.208,10.44,-4.963,-4.756,10.371,6.262,2.999,6.923,7.354,2.041,-1.356
'0:01.160',3.386,10.196,10.433,-4.955,-4.756,10.361,6.269,3.011,6.897,7.375,2.064,-1.329
'0:01.163',3.394,10.213,10.443,-4.967,-4.757,10.375,6.263,3.002,6.904,7.372,2.06,-1.336
'0:01.167',3.388,10.227,10.462,-4.971,-4.769,10.391,6.256,2.988,6.907,7.344,2.025,-1.38
'0:01.171',3.392,10.232,10.464,-4.976,-4.768,10.395,6.264,2.997,6.91,7.336,2.018,-1.388
'0:01.175',3.398,10.209,10.435,-4.967,-4.751,10.369,6.264,3.004,6.914,7.347,2.03,-1.374
'0:01.179',3.405,10.2,10.418,-4.966,-4.739,10.355,6.273,3.011,6.905,7.369,2.057,-1.344
'0:01.183',3.392,10.21,10.442,-4.964,-4.757,10.373,6.27,3.006,6.911,7.367,2.063,-1.337
'0:01.187',3.393,10.234,10.465,-4.977,-4.768,10.396,6.264,3.001,6.944,7.352,2.042,-1.365
'0:01.191',3.399,10.237,10.462,-4.982,-4.764,10.396,6.266,2.999,6.926,7.336,2.019,-1.388
'0:01.195',3.389,10.214,10.449,-4.965,-4.762,10.378,6.267,2.996,6.894,7.341,2.028,-1.375
'0:01.198',3.403,10.193,10.413,-4.962,-4.737,10.35,6.265,3.007,6.912,7.351,2.058,-1.346
'0:01.202',3.393,10.21,10.441,-4.965,-4.756,10.372,6.273,3.007,6.926,7.37,2.065,-1.331
'0:01.206',3.394,10.232,10.462,-4.977,-4.767,10.394,6.265,2.999,6.893,7.354,2.046,-1.355
'0:01.210',3.382,10.217,10.458,-4.963,-4.77,10.384,6.264,2.993,6.925,7.329,2.019,-1.388
'0:01.214',3.382,10.204,10.445,-4.957,-4.764,10.371,6.263,2.992,6.885,7.328,2.022,-1.38
'0:01.218',3.389,10.181,10.415,-4.948,-4.745,10.344,6.266,2.992,6.877,7.347,2.045,-1.34
'0:01.222',3.396,10.191,10.419,-4.957,-4.744,10.352,6.266,2.999,6.896,7.363,2.061,-1.336
'0:01.226',3.378,10.21,10.456,-4.958,-4.771,10.379,6.264,2.986,6.948,7.347,2.045,-1.354
'0:01.230',3.392,10.227,10.458,-4.973,-4.766,10.389,6.263,2.99,6.954,7.328,2.024,-1.38
'0:01.233',3.412,10.215,10.427,-4.977,-4.74,10.367,6.259,2.985,6.928,7.325,2.026,-1.373
'0:01.237',3.401,10.187,10.41,-4.958,-4.737,10.345,6.266,2.993,6.903,7.348,2.059,-1.337
'0:01.241',3.402,10.196,10.417,-4.963,-4.74,10.353,6.268,2.996,6.902,7.36,2.072,-1.324
'0:01.245',3.417,10.222,10.428,-4.983,-4.738,10.372,6.256,2.986,6.891,7.342,2.05,-1.347
'0:01.249',3.394,10.225,10.454,-4.973,-4.763,10.386,6.258,2.975,6.952,7.318,2.024,-1.378
'0:01.253',3.381,10.205,10.447,-4.957,-4.765,10.372,6.256,2.981,6.912,7.315,2.026,-1.378
'0:01.257',3.372,10.18,10.431,-4.939,-4.762,10.352,6.27,2.994,6.913,7.343,2.057,-1.337
'0:01.261',3.406,10.179,10.396,-4.956,-4.727,10.333,6.256,2.988,6.913,7.336,2.057,-1.337
'0:01.265',3.397,10.205,10.431,-4.964,-4.749,10.364,6.256,2.974,6.94,7.333,2.056,-1.342
'0:01.268',3.391,10.208,10.441,-4.963,-4.757,10.371,6.25,2.97,6.94,7.309,2.026,-1.379
'0:01.272',3.381,10.197,10.439,-4.953,-4.761,10.364,6.255,2.973,6.926,7.306,2.025,-1.38
'0:01.276',3.391,10.181,10.413,-4.949,-4.744,10.343,6.256,2.976,6.908,7.323,2.04,-1.352
'0:01.280',3.4,10.177,10.401,-4.952,-4.733,10.335,6.251,2.98,6.895,7.333,2.057,-1.331
'0:01.284',3.417,10.202,10.408,-4.973,-4.728,10.352,6.247,2.978,6.922,7.329,2.058,-1.336
'0:01.288',3.391,10.214,10.447,-4.966,-4.76,10.377,6.25,2.974,6.934,7.315,2.039,-1.368
'0:01.292',3.402,10.215,10.436,-4.972,-4.749,10.372,6.253,2.968,6.929,7.311,2.025,-1.374
'0:01.296',3.405,10.19,10.408,-4.962,-4.734,10.346,6.253,2.977,6.937,7.319,2.047,-1.348
'0:01.300',3.402,10.182,10.402,-4.956,-4.732,10.338,6.259,2.981,6.884,7.342,2.067,-1.327
'0:01.304',3.395,10.201,10.429,-4.962,-4.749,10.361,6.255,2.977,6.927,7.335,2.071,-1.321
'0:01.307',3.384,10.211,10.451,-4.962,-4.766,10.378,6.25,2.967,6.938,7.312,2.036,-1.365
'0:01.311',3.39,10.208,10.442,-4.963,-4.758,10.372,6.251,2.967,6.922,7.304,2.028,-1.375
'0:01.315',3.399,10.183,10.407,-4.954,-4.737,10.341,6.252,2.973,6.897,7.315,2.037,-1.364
'0:01.319',3.402,10.193,10.415,-4.961,-4.739,10.351,6.261,2.981,6.901,7.335,2.066,-1.326
'0:01.323',3.38,10.223,10.466,-4.965,-4.775,10.391,6.269,2.985,6.96,7.348,2.068,-1.321
'0:01.327',3.392,10.28,10.512,-5,-4.793,10.443,6.264,2.984,6.962,7.335,2.061,-1.338
'0:01.331',3.397,10.282,10.509,-5.003,-4.789,10.442,6.269,2.978,6.976,7.332,2.05,-1.349
'0:01.335',3.401,10.258,10.481,-4.993,-4.772,10.416,6.272,2.99,6.993,7.341,2.057,-1.346
'0:01.339',3.417,10.246,10.452,-4.995,-4.75,10.396,6.279,3.001,6.946,7.361,2.085,-1.311
'0:01.342',3.417,10.269,10.476,-5.007,-4.762,10.419,6.275,3.002,6.914,7.38,2.099,-1.303
'0:01.346',3.402,10.31,10.531,-5.02,-4.796,10.467,6.263,2.995,6.974,7.378,2.094,-1.311
'0:01.350',3.416,10.324,10.531,-5.034,-4.79,10.474,6.251,2.983,7.004,7.364,2.077,-1.324
'0:01.354',3.423,10.306,10.507,-5.028,-4.774,10.453,6.231,2.96,6.952,7.36,2.083,-1.318
'0:01.358',3.423,10.291,10.492,-5.02,-4.767,10.438,6.228,2.962,6.946,7.38,2.109,-1.287
'0:01.362',3.385,10.275,10.513,-4.993,-4.796,10.44,6.231,2.958,6.969,7.395,2.129,-1.254
'0:01.366',3.388,10.304,10.539,-5.01,-4.808,10.468,6.232,2.961,6.976,7.38,2.107,-1.29
'0:01.370',3.41,10.325,10.538,-5.031,-4.796,10.477,6.233,2.965,6.999,7.378,2.1,-1.3
'0:01.374',3.446,10.284,10.462,-5.029,-4.741,10.42,6.232,2.967,6.979,7.375,2.098,-1.302
'0:01.377',3.44,10.243,10.427,-5.005,-4.725,10.381,6.242,2.98,6.95,7.389,2.118,-1.274
'0:01.381',3.422,10.227,10.428,-4.988,-4.736,10.374,6.24,2.97,6.917,7.394,2.134,-1.246
'0:01.385',3.418,10.244,10.45,-4.994,-4.748,10.393,6.236,2.971,6.952,7.376,2.122,-1.27
'0:01.389',3.414,10.248,10.457,-4.994,-4.754,10.399,6.232,2.959,6.928,7.357,2.089,-1.305
'0:01.393',3.431,10.227,10.419,-4.992,-4.726,10.369,6.232,2.969,6.903,7.344,2.085,-1.313
'0:01.397',3.418,10.207,10.412,-4.976,-4.729,10.355,6.245,2.977,6.919,7.372,2.111,-1.28
'0:01.401',3.407,10.201,10.417,-4.967,-4.737,10.355,6.252,2.984,6.921,7.384,2.118,-1.269
'0:01.405',3.39,10.21,10.444,-4.963,-4.759,10.374,6.242,2.969,6.941,7.361,2.097,-1.301
'0:01.409',3.386,10.215,10.452,-4.964,-4.766,10.38,6.232,2.957,6.912,7.325,2.057,-1.343
'0:01.412',3.396,10.191,10.419,-4.957,-4.744,10.352,6.232,2.953,6.887,7.305,2.037,-1.361
'0:01.416',3.381,10.155,10.397,-4.932,-4.74,10.322,6.24,2.957,6.89,7.31,2.042,-1.343
'0:01.420',3.396,10.163,10.391,-4.943,-4.73,10.324,6.244,2.966,6.876,7.34,2.072,-1.315
'0:01.424',3.398,10.183,10.408,-4.954,-4.738,10.342,6.244,2.963,6.886,7.33,2.063,-1.327
'0:01.428',3.365,10.198,10.456,-4.945,-4.778,10.374,6.243,2.966,6.945,7.315,2.046,-1.354
'0:01.432',3.407,10.182,10.398,-4.958,-4.727,10.336,6.231,2.951,6.896,7.296,2.028,-1.374
'0:01.436',3.398,10.173,10.399,-4.949,-4.733,10.332,6.24,2.962,6.882,7.309,2.043,-1.353
'0:01.440',3.397,10.157,10.383,-4.94,-4.725,10.316,6.251,2.973,6.866,7.329,2.072,-1.313
'0:01.444',3.381,10.174,10.416,-4.941,-4.749,10.341,6.248,2.967,6.871,7.335,2.074,-1.323
'0:01.447',3.385,10.197,10.435,-4.955,-4.757,10.362,6.246,2.967,6.898,7.314,2.045,-1.355
'0:01.451',3.391,10.183,10.415,-4.95,-4.744,10.345,6.242,2.963,6.92,7.302,2.035,-1.37
'0:01.455',3.404,10.169,10.388,-4.95,-4.724,10.325,6.243,2.965,6.901,7.311,2.05,-1.352
'0:01.459',3.397,10.159,10.386,-4.941,-4.727,10.319,6.248,2.975,6.889,7.331,2.067,-1.327
'0:01.463',3.403,10.177,10.397,-4.954,-4.729,10.333,6.248,2.974,6.923,7.336,2.072,-1.317
'0:01.467',3.405,10.196,10.414,-4.964,-4.737,10.352,6.244,2.974,6.914,7.32,2.054,-1.345
'0:01.471',3.398,10.192,10.418,-4.959,-4.743,10.352,6.245,2.97,6.887,7.307,2.037,-1.365
'0:01.475',3.401,10.167,10.39,-4.947,-4.727,10.325,6.248,2.975,6.906,7.315,2.047,-1.352
'0:01.479',3.408,10.158,10.373,-4.946,-4.715,10.311,6.25,2.972,6.876,7.333,2.064,-1.327
'0:01.482',3.405,10.163,10.381,-4.948,-4.72,10.319,6.249,2.979,6.908,7.344,2.083,-1.315
'0:01.486',3.388,10.196,10.431,-4.956,-4.754,10.36,6.259,2.988,6.911,7.332,2.059,-1.341
'0:01.490',3.374,10.189,10.439,-4.945,-4.765,10.36,6.284,3.008,6.928,7.301,2.012,-1.392
'0:01.494',3.394,10.159,10.388,-4.939,-4.729,10.32,6.321,3.066,6.884,7.277,1.955,-1.452
'0:01.498',3.422,10.111,10.313,-4.93,-4.678,10.258,6.336,3.13,6.838,7.343,1.999,-1.435
'0:01.502',3.459,10.085,10.249,-4.936,-4.627,10.213,6.371,3.216,6.827,7.447,2.066,-1.411
'0:01.506',3.496,10.11,10.238,-4.966,-4.603,10.221,6.39,3.263,6.835,7.64,2.219,-1.357
'0:01.510',3.566,10.152,10.209,-5.022,-4.554,10.227,6.325,3.235,6.848,8.063,2.589,-1.137
'0:01.514',3.649,10.187,10.161,-5.082,-4.488,10.221,6.185,3.112,6.826,8.565,3.1,-0.768
'0:01.518',3.714,10.288,10.198,-5.164,-4.475,10.289,6.007,2.879,6.858,9.097,3.692,-0.303
'0:01.521',3.703,10.41,10.33,-5.22,-4.546,10.417,5.839,2.632,6.982,9.548,4.207,0.102
'0:01.525',3.629,10.531,10.525,-5.244,-4.68,10.574,5.729,2.419,7.072,9.668,4.327,0.23
'0:01.529',3.533,10.563,10.653,-5.211,-4.793,10.654,5.607,2.212,7.118,9.37,4.133,0.222
'0:01.533',3.411,10.475,10.687,-5.107,-4.87,10.627,5.512,1.967,7.073,7.948,3.165,-0.175
'0:01.537',3.273,10.407,10.758,-5.004,-4.975,10.629,5.545,1.981,7.116,6.866,2.199,-0.686
'0:01.541',3.27,10.352,10.705,-4.974,-4.95,10.574,5.613,2.106,7.068,6.883,2.077,-0.85
'0:01.545',3.295,10.37,10.698,-4.996,-4.934,10.58,5.704,2.247,7.052,6.998,2.129,-0.879
'0:01.549',3.265,10.354,10.713,-4.973,-4.956,10.58,5.809,2.367,7.112,7.046,2.086,-0.968
'0:01.553',3.302,10.346,10.668,-4.988,-4.915,10.553,5.913,2.501,7.049,7.085,2.081,-1.014
'0:01.556',3.309,10.344,10.658,-4.99,-4.907,10.548,6.007,2.629,7.047,7.173,2.125,-0.991
'0:01.560',3.32,10.335,10.639,-4.991,-4.891,10.533,6.054,2.705,7.044,7.241,2.166,-0.976
'0:01.564',3.307,10.376,10.692,-5.005,-4.924,10.58,6.066,2.704,7.077,7.272,2.175,-0.988
'0:01.568',3.304,10.4,10.72,-5.015,-4.94,10.606,6.093,2.72,7.076,7.253,2.125,-1.068
'0:01.572',3.319,10.373,10.677,-5.01,-4.912,10.572,6.118,2.758,7.04,7.238,2.077,-1.154
'0:01.576',3.327,10.317,10.614,-4.986,-4.876,10.512,6.143,2.793,6.979,7.248,2.068,-1.165
'0:01.580',3.354,10.284,10.554,-4.983,-4.833,10.466,6.159,2.824,6.986,7.27,2.087,-1.156
'0:01.584',3.351,10.281,10.554,-4.98,-4.834,10.464,6.168,2.836,6.976,7.275,2.083,-1.169
'0:01.588',3.349,10.294,10.569,-4.985,-4.842,10.477,6.17,2.839,6.981,7.255,2.063,-1.206
'0:01.591',3.359,10.297,10.561,-4.991,-4.833,10.476,6.175,2.838,6.956,7.252,2.05,-1.221
'0:01.595',3.345,10.281,10.56,-4.977,-4.84,10.467,6.178,2.846,6.994,7.26,2.062,-1.196
'0:01.599',3.351,10.27,10.543,-4.974,-4.828,10.452,6.181,2.847,6.982,7.283,2.09,-1.169
'0:01.603',3.338,10.286,10.572,-4.976,-4.849,10.476,6.183,2.845,6.989,7.285,2.088,-1.163
'0:01.607',3.335,10.298,10.586,-4.98,-4.858,10.488,6.176,2.84,6.981,7.261,2.062,-1.213
'0:01.611',3.342,10.288,10.57,-4.979,-4.846,10.476,6.178,2.836,6.991,7.256,2.053,-1.224
'0:01.615',3.349,10.279,10.553,-4.977,-4.835,10.462,6.183,2.849,6.966,7.261,2.07,-1.202
'0:01.619',3.343,10.269,10.549,-4.969,-4.836,10.455,6.184,2.851,7.002,7.291,2.096,-1.16
'0:01.623',3.35,10.276,10.549,-4.976,-4.832,10.459,6.187,2.859,6.968,7.295,2.11,-1.154
'0:01.626',3.336,10.305,10.592,-4.984,-4.86,10.495,6.185,2.844,7.014,7.281,2.081,-1.189
'0:01.630',3.332,10.313,10.604,-4.987,-4.868,10.505,6.183,2.849,7.002,7.267,2.071,-1.193
'0:01.634',3.351,10.305,10.578,-4.991,-4.846,10.488,6.184,2.85,6.966,7.273,2.083,-1.179
'0:01.638',3.37,10.294,10.548,-4.995,-4.821,10.467,6.188,2.855,6.954,7.296,2.111,-1.143
'0:01.642',3.354,10.299,10.569,-4.989,-4.84,10.48,6.186,2.85,7.02,7.311,2.131,-1.127
'0:01.646',3.31,10.321,10.634,-4.979,-4.894,10.524,6.196,2.852,7.024,7.301,2.113,-1.143
'0:01.650',3.345,10.338,10.617,-5.005,-4.868,10.524,6.183,2.849,7.015,7.281,2.096,-1.158
'0:01.654',3.354,10.315,10.584,-4.998,-4.847,10.496,6.175,2.845,6.994,7.28,2.093,-1.159
'0:01.658',3.354,10.302,10.571,-4.991,-4.841,10.482,6.182,2.853,6.976,7.304,2.124,-1.123
'0:01.661',3.352,10.311,10.583,-4.995,-4.848,10.494,6.182,2.857,6.98,7.328,2.155,-1.089
'0:01.665',3.35,10.328,10.601,-5.002,-4.858,10.511,6.182,2.853,7.032,7.308,2.134,-1.109
'0:01.669',3.331,10.335,10.627,-4.997,-4.88,10.527,6.175,2.847,7.038,7.294,2.113,-1.138
'0:01.673',3.335,10.326,10.614,-4.994,-4.871,10.516,6.177,2.847,7.019,7.297,2.122,-1.131
'0:01.677',3.341,10.313,10.596,-4.99,-4.86,10.5,6.186,2.861,7.011,7.325,2.153,-1.087
'0:01.681',3.349,10.322,10.597,-4.999,-4.856,10.505,6.182,2.859,7.005,7.347,2.175,-1.059
'0:01.685',3.342,10.34,10.622,-5.005,-4.872,10.527,6.185,2.867,7.014,7.341,2.167,-1.067
'0:01.689',3.346,10.373,10.65,-5.023,-4.885,10.558,6.185,2.866,7.037,7.329,2.156,-1.085
'0:01.693',3.359,10.368,10.632,-5.027,-4.868,10.547,6.19,2.872,7.037,7.33,2.161,-1.077
'0:01.696',3.351,10.345,10.618,-5.012,-4.866,10.527,6.193,2.882,7.032,7.358,2.189,-1.043
'0:01.700',3.35,10.341,10.615,-5.009,-4.865,10.524,6.194,2.893,7.021,7.379,2.215,-1.008
'0:01.704',3.341,10.361,10.644,-5.014,-4.884,10.549,6.197,2.889,7.039,7.38,2.217,-1.016
'0:01.708',3.332,10.387,10.678,-5.023,-4.905,10.579,6.199,2.891,7.096,7.368,2.197,-1.034
'0:01.712',3.372,10.392,10.644,-5.045,-4.868,10.564,6.192,2.902,7.059,7.371,2.208,-1.033
'0:01.716',3.381,10.377,10.619,-5.042,-4.851,10.544,6.2,2.913,7.043,7.398,2.229,-0.997
'0:01.720',3.363,10.37,10.63,-5.03,-4.866,10.547,6.212,2.927,7.034,7.428,2.257,-0.97
'0:01.724',3.354,10.393,10.663,-5.037,-4.887,10.574,6.218,2.939,7.07,7.438,2.27,-0.963
'0:01.728',3.346,10.419,10.696,-5.046,-4.908,10.604,6.218,2.947,7.071,7.431,2.259,-0.98
'0:01.732',3.354,10.415,10.684,-5.048,-4.897,10.596,6.222,2.955,7.072,7.433,2.258,-0.979
'0:01.735',3.368,10.404,10.66,-5.05,-4.878,10.578,6.238,2.98,7.035,7.459,2.283,-0.96
'0:01.739',3.375,10.389,10.638,-5.045,-4.864,10.56,6.239,2.998,7.068,7.488,2.321,-0.928
'0:01.743',3.371,10.414,10.667,-5.056,-4.88,10.587,6.249,3.013,7.072,7.51,2.337,-0.913
'0:01.747',3.361,10.438,10.7,-5.063,-4.902,10.616,6.256,3.029,7.095,7.509,2.327,-0.934
'0:01.751',3.379,10.434,10.678,-5.07,-4.882,10.602,6.266,3.041,7.07,7.51,2.316,-0.955
'0:01.755',3.385,10.424,10.662,-5.068,-4.87,10.589,6.275,3.064,7.073,7.535,2.346,-0.931
'0:01.759',3.387,10.404,10.641,-5.06,-4.859,10.569,6.277,3.075,7.099,7.566,2.364,-0.9
'0:01.763',3.392,10.418,10.649,-5.068,-4.861,10.58,6.289,3.104,7.084,7.598,2.392,-0.897
'0:01.767',3.39,10.445,10.678,-5.081,-4.876,10.608,6.296,3.114,7.067,7.585,2.378,-0.93
'0:01.770',3.408,10.437,10.652,-5.086,-4.854,10.591,6.302,3.126,7.053,7.582,2.362,-0.947
'0:01.774',3.413,10.415,10.625,-5.078,-4.839,10.567,6.311,3.149,7.042,7.598,2.375,-0.942
'0:01.778',3.433,10.413,10.603,-5.086,-4.817,10.554,6.326,3.175,7.028,7.641,2.412,-0.909
'0:01.782',3.406,10.402,10.619,-5.067,-4.839,10.556,6.336,3.189,7.038,7.659,2.42,-0.912
'0:01.786',3.414,10.427,10.636,-5.084,-4.843,10.577,6.341,3.198,7.039,7.652,2.398,-0.945
'0:01.790',3.428,10.417,10.612,-5.086,-4.824,10.561,6.347,3.212,7.045,7.651,2.395,-0.978
'0:01.794',3.431,10.397,10.589,-5.078,-4.811,10.539,6.349,3.219,7.045,7.658,2.388,-0.984
'0:01.798',3.462,10.381,10.543,-5.085,-4.772,10.508,6.354,3.234,7.03,7.683,2.407,-0.966
'0:01.802',3.452,10.366,10.537,-5.073,-4.774,10.498,6.359,3.239,7.002,7.701,2.424,-0.965
'0:01.805',3.439,10.37,10.554,-5.068,-4.79,10.508,6.353,3.223,7.012,7.689,2.396,-1.009
'0:01.809',3.45,10.361,10.535,-5.069,-4.775,10.495,6.346,3.22,6.986,7.666,2.36,-1.053
'0:01.813',3.465,10.331,10.49,-5.061,-4.744,10.457,6.341,3.212,6.978,7.66,2.347,-1.085
'0:01.817',3.469,10.296,10.451,-5.046,-4.723,10.42,6.337,3.203,6.94,7.671,2.354,-1.08
'0:01.821',3.472,10.281,10.433,-5.04,-4.713,10.403,6.332,3.19,6.924,7.67,2.351,-1.076
'0:01.825',3.453,10.292,10.462,-5.037,-4.737,10.424,6.329,3.174,6.926,7.641,2.314,-1.122
'0:01.829',3.447,10.283,10.46,-5.029,-4.739,10.418,6.319,3.156,6.962,7.595,2.264,-1.187
'0:01.833',3.457,10.255,10.421,-5.019,-4.714,10.384,6.315,3.141,6.938,7.567,2.238,-1.212
'0:01.837',3.443,10.22,10.401,-4.995,-4.711,10.356,6.311,3.13,6.932,7.557,2.23,-1.213
'0:01.840',3.429,10.212,10.406,-4.985,-4.72,10.355,6.305,3.122,6.921,7.549,2.229,-1.198
'0:01.844',3.422,10.223,10.425,-4.986,-4.734,10.37,6.295,3.099,6.907,7.515,2.198,-1.231
'0:01.848',3.428,10.233,10.428,-4.994,-4.732,10.378,6.287,3.08,6.931,7.475,2.147,-1.282
'0:01.852',3.445,10.219,10.398,-4.995,-4.709,10.354,6.285,3.066,6.89,7.439,2.118,-1.309
'0:01.856',3.445,10.197,10.376,-4.985,-4.697,10.332,6.282,3.061,6.903,7.436,2.116,-1.297
'0:01.860',3.432,10.189,10.38,-4.974,-4.706,10.331,6.291,3.059,6.867,7.442,2.131,-1.276
'0:01.864',3.424,10.2,10.4,-4.975,-4.72,10.346,6.279,3.044,6.909,7.421,2.114,-1.297
'0:01.868',3.392,10.218,10.45,-4.968,-4.761,10.38,6.282,3.026,6.963,7.392,2.074,-1.333
'0:01.872',3.381,10.201,10.443,-4.955,-4.763,10.368,6.285,3.021,6.915,7.371,2.066,-1.347
'0:01.875',3.421,10.179,10.381,-4.963,-4.713,10.327,6.261,3.006,6.865,7.361,2.053,-1.345
'0:01.879',3.406,10.165,10.382,-4.949,-4.72,10.32,6.259,3.014,6.895,7.379,2.074,-1.319
'0:01.883',3.39,10.174,10.407,-4.945,-4.741,10.337,6.267,3.014,6.893,7.379,2.078,-1.319
'0:01.887',3.404,10.208,10.427,-4.97,-4.744,10.364,6.261,3.004,6.917,7.348,2.045,-1.36
'0:01.891',3.411,10.201,10.413,-4.969,-4.733,10.354,6.253,2.995,6.911,7.335,2.035,-1.378
'0:01.895',3.416,10.187,10.395,-4.965,-4.721,10.337,6.263,3.003,6.895,7.338,2.038,-1.361
'0:01.899',3.411,10.177,10.389,-4.958,-4.721,10.329,6.266,3.006,6.868,7.365,2.067,-1.324
'0:01.903',3.42,10.197,10.401,-4.972,-4.722,10.345,6.263,3.003,6.893,7.364,2.074,-1.318
'0:01.907',3.404,10.214,10.433,-4.973,-4.746,10.37,6.262,2.997,6.929,7.348,2.051,-1.35
'0:01.911',3.391,10.207,10.44,-4.963,-4.757,10.37,6.262,2.995,6.916,7.332,2.042,-1.371
'0:01.914',3.386,10.188,10.426,-4.951,-4.752,10.354,6.268,2.999,6.914,7.341,2.045,-1.359
'0:01.918',3.395,10.173,10.402,-4.947,-4.736,10.333,6.268,3.002,6.902,7.358,2.063,-1.329
'0:01.922',3.396,10.18,10.407,-4.951,-4.738,10.34,6.263,3.002,6.904,7.365,2.069,-1.319
'0:01.926',3.384,10.203,10.442,-4.957,-4.761,10.369,6.266,2.995,6.948,7.35,2.049,-1.353
'0:01.930',3.4,10.212,10.436,-4.969,-4.75,10.371,6.264,3.002,6.918,7.329,2.029,-1.369
'0:01.934',3.406,10.203,10.42,-4.968,-4.739,10.357,6.261,2.999,6.915,7.339,2.037,-1.365
'0:01.938',3.409,10.181,10.395,-4.959,-4.725,10.334,6.267,3.008,6.902,7.361,2.063,-1.331
'0:01.942',3.408,10.195,10.41,-4.965,-4.733,10.349,6.269,3.012,6.905,7.378,2.083,-1.318
'0:01.946',3.409,10.215,10.429,-4.976,-4.743,10.369,6.264,3.003,6.935,7.364,2.056,-1.336
'0:01.949',3.399,10.221,10.446,-4.973,-4.756,10.379,6.266,2.999,6.93,7.346,2.041,-1.364
'0:01.953',3.403,10.203,10.423,-4.966,-4.742,10.359,6.268,3.007,6.902,7.348,2.037,-1.362
'0:01.957',3.408,10.184,10.4,-4.96,-4.728,10.338,6.27,3.015,6.903,7.361,2.058,-1.338
'0:01.961',3.402,10.186,10.408,-4.958,-4.736,10.344,6.275,3.02,6.908,7.382,2.079,-1.323
'0:01.965',3.408,10.208,10.424,-4.972,-4.74,10.362,6.275,3.012,6.93,7.367,2.06,-1.34
'0:01.969',3.392,10.213,10.445,-4.966,-4.759,10.376,6.272,3.007,6.927,7.346,2.035,-1.373
'0:01.973',3.402,10.199,10.421,-4.963,-4.742,10.356,6.272,3.012,6.909,7.342,2.031,-1.381
'0:01.977',3.402,10.187,10.409,-4.958,-4.736,10.345,6.278,3.013,6.895,7.357,2.048,-1.347
'0:01.981',3.392,10.175,10.406,-4.947,-4.74,10.337,6.276,3.013,6.909,7.37,2.068,-1.33
'0:01.984',3.386,10.195,10.432,-4.954,-4.755,10.36,6.279,3.008,6.918,7.366,2.061,-1.333
'0:01.988',3.389,10.208,10.443,-4.963,-4.759,10.372,6.267,3,6.943,7.343,2.024,-1.38
'0:01.992',3.406,10.2,10.417,-4.966,-4.738,10.354,6.264,3.002,6.903,7.331,2.02,-1.378
'0:01.996',3.428,10.19,10.385,-4.973,-4.711,10.334,6.27,3.011,6.886,7.349,2.042,-1.357
'0:02.000',3.411,10.18,10.392,-4.959,-4.722,10.332,6.275,3.012,6.888,7.37,2.069,-1.326
'0:02.004',3.407,10.202,10.418,-4.968,-4.738,10.356,6.276,3.015,6.904,7.364,2.064,-1.327
'0:02.008',3.382,10.213,10.454,-4.962,-4.768,10.38,6.27,3.004,6.929,7.344,2.041,-1.361
'0:02.012',3.38,10.201,10.444,-4.954,-4.764,10.369,6.273,3.003,6.904,7.335,2.031,-1.372
'0:02.016',3.39,10.178,10.411,-4.947,-4.743,10.341,6.27,3.002,6.9,7.334,2.037,-1.363
'0:02.019',3.369,10.166,10.421,-4.931,-4.758,10.34,6.278,3.007,6.921,7.362,2.071,-1.321
'0:02.023',3.383,10.177,10.417,-4.943,-4.749,10.343,6.269,2.996,6.89,7.35,2.06,-1.331
'0:02.027',3.399,10.197,10.422,-4.962,-4.744,10.355,6.259,2.985,6.92,7.329,2.033,-1.369
'0:02.031',3.388,10.2,10.435,-4.958,-4.756,10.364,6.269,2.988,6.891,7.321,2.022,-1.375
'0:02.035',3.402,10.183,10.404,-4.957,-4.733,10.34,6.266,2.994,6.883,7.328,2.036,-1.358
'0:02.039',3.402,10.173,10.394,-4.951,-4.728,10.329,6.275,3.002,6.904,7.353,2.07,-1.322
'0:02.043',3.4,10.191,10.415,-4.959,-4.74,10.35,6.272,2.997,6.909,7.356,2.071,-1.323
'0:02.047',3.403,10.216,10.436,-4.973,-4.748,10.373,6.268,2.983,6.946,7.331,2.04,-1.357
'0:02.051',3.421,10.206,10.408,-4.977,-4.726,10.354,6.256,2.977,6.898,7.31,2.021,-1.378
'0:02.054',3.41,10.183,10.396,-4.96,-4.725,10.335,6.256,2.987,6.881,7.322,2.037,-1.365
'0:02.058',3.407,10.166,10.382,-4.95,-4.72,10.321,6.263,2.994,6.873,7.34,2.062,-1.329
'0:02.062',3.385,10.166,10.404,-4.939,-4.742,10.331,6.261,2.988,6.882,7.343,2.07,-1.321
'0:02.066',3.37,10.189,10.443,-4.943,-4.768,10.362,6.261,2.984,6.922,7.333,2.046,-1.347
'0:02.070',3.387,10.194,10.43,-4.954,-4.754,10.358,6.26,2.984,6.862,7.311,2.032,-1.37
'0:02.074',3.401,10.186,10.409,-4.957,-4.737,10.344,6.256,2.979,6.89,7.314,2.034,-1.36
'0:02.078',3.402,10.165,10.387,-4.947,-4.725,10.323,6.259,2.985,6.901,7.333,2.059,-1.336
'0:02.082',3.417,10.182,10.388,-4.963,-4.718,10.331,6.263,2.991,6.861,7.35,2.075,-1.316
'0:02.086',3.422,10.208,10.41,-4.979,-4.726,10.355,6.26,2.984,6.907,7.329,2.058,-1.338
'0:02.089',3.385,10.199,10.437,-4.956,-4.758,10.364,6.257,2.98,6.902,7.311,2.035,-1.367
'0:02.093',3.388,10.185,10.421,-4.95,-4.748,10.35,6.256,2.973,6.919,7.312,2.037,-1.357
'0:02.097',3.396,10.169,10.397,-4.946,-4.733,10.329,6.267,2.981,6.924,7.328,2.054,-1.334
'0:02.101',3.394,10.159,10.389,-4.94,-4.73,10.321,6.257,2.986,6.887,7.345,2.073,-1.312
'0:02.105',3.388,10.183,10.418,-4.949,-4.747,10.347,6.253,2.979,6.885,7.33,2.056,-1.336
'0:02.109',3.388,10.186,10.422,-4.951,-4.749,10.351,6.253,2.969,6.903,7.307,2.025,-1.371
'0:02.113',3.402,10.181,10.402,-4.955,-4.733,10.338,6.255,2.973,6.89,7.302,2.027,-1.37
'0:02.117',3.405,10.169,10.387,-4.951,-4.723,10.325,6.259,2.981,6.887,7.323,2.059,-1.333
'0:02.121',3.388,10.162,10.398,-4.939,-4.737,10.327,6.259,2.982,6.923,7.342,2.077,-1.313
'0:02.125',3.385,10.18,10.418,-4.946,-4.748,10.345,6.257,2.979,6.911,7.334,2.065,-1.326
'0:02.128',3.396,10.195,10.423,-4.959,-4.745,10.355,6.255,2.976,6.92,7.305,2.035,-1.375
'0:02.132',3.405,10.195,10.413,-4.963,-4.736,10.351,6.251,2.97,6.936,7.307,2.028,-1.373
'0:02.136',3.4,10.168,10.392,-4.947,-4.728,10.327,6.257,2.979,6.921,7.32,2.042,-1.354
'0:02.140',3.388,10.159,10.394,-4.937,-4.735,10.323,6.26,2.978,6.901,7.339,2.072,-1.317
'0:02.144',3.383,10.174,10.414,-4.942,-4.747,10.34,6.255,2.976,6.903,7.33,2.061,-1.332
'0:02.148',3.378,10.188,10.434,-4.946,-4.761,10.357,6.248,2.963,6.923,7.304,2.025,-1.383
'0:02.152',3.398,10.192,10.418,-4.959,-4.743,10.352,6.251,2.967,6.901,7.297,2.02,-1.394
'0:02.156',3.4,10.17,10.394,-4.948,-4.729,10.329,6.254,2.968,6.898,7.304,2.024,-1.375
'0:02.160',3.39,10.174,10.407,-4.945,-4.741,10.337,6.263,2.985,6.898,7.334,2.061,-1.33
'0:02.163',3.402,10.186,10.407,-4.958,-4.735,10.343,6.263,2.982,6.907,7.335,2.061,-1.336
'0:02.167',3.405,10.232,10.451,-4.983,-4.755,10.388,6.268,2.982,6.928,7.326,2.053,-1.359
'0:02.171',3.41,10.247,10.46,-4.992,-4.757,10.4,6.267,2.98,6.941,7.317,2.048,-1.36
'0:02.175',3.408,10.245,10.46,-4.99,-4.758,10.399,6.274,2.993,6.959,7.342,2.065,-1.335
'0:02.179',3.401,10.234,10.457,-4.981,-4.761,10.392,6.286,3.003,6.94,7.366,2.088,-1.306
'0:02.183',3.395,10.249,10.477,-4.986,-4.773,10.409,6.29,3.004,6.93,7.37,2.093,-1.311
'0:02.187',3.394,10.272,10.501,-4.996,-4.786,10.433,6.282,2.998,6.996,7.343,2.067,-1.342
'0:02.191',3.397,10.274,10.5,-4.999,-4.784,10.433,6.283,2.997,6.959,7.349,2.066,-1.346
'0:02.195',3.377,10.274,10.521,-4.988,-4.804,10.444,6.281,3.001,6.962,7.378,2.094,-1.308
'0:02.198',3.414,10.26,10.47,-5.001,-4.76,10.411,6.262,3,6.989,7.395,2.114,-1.285
'0:02.202',3.434,10.285,10.475,-5.023,-4.752,10.427,6.237,2.963,6.969,7.385,2.115,-1.28
'0:02.206',3.414,10.297,10.506,-5.019,-4.778,10.448,6.232,2.955,6.989,7.369,2.091,-1.311
'0:02.210',3.406,10.283,10.5,-5.009,-4.779,10.438,6.232,2.95,6.968,7.354,2.08,-1.323
'0:02.214',3.417,10.282,10.489,-5.013,-4.768,10.432,6.235,2.955,6.963,7.363,2.096,-1.304
'0:02.218',3.434,10.282,10.472,-5.022,-4.751,10.424,6.249,2.984,6.955,7.407,2.144,-1.248
'0:02.222',3.405,10.259,10.477,-4.996,-4.768,10.415,6.257,2.987,7,7.421,2.151,-1.241
'0:02.226',3.415,10.258,10.467,-5,-4.758,10.409,6.251,2.984,6.927,7.394,2.126,-1.275
'0:02.230',3.409,10.238,10.452,-4.988,-4.754,10.392,6.233,2.966,6.911,7.363,2.102,-1.298
'0:02.233',3.413,10.219,10.429,-4.98,-4.741,10.371,6.238,2.97,6.913,7.36,2.099,-1.294
'0:02.237',3.435,10.198,10.386,-4.98,-4.708,10.338,6.236,2.969,6.87,7.366,2.109,-1.279
'0:02.241',3.413,10.19,10.401,-4.965,-4.726,10.342,6.245,2.973,6.912,7.374,2.116,-1.275
'0:02.245',3.411,10.223,10.435,-4.981,-4.744,10.376,6.251,2.978,6.909,7.375,2.109,-1.297
'0:02.249',3.398,10.227,10.452,-4.976,-4.76,10.386,6.254,2.975,6.949,7.354,2.078,-1.33
'0:02.253',3.399,10.198,10.423,-4.962,-4.744,10.356,6.242,2.958,6.916,7.329,2.062,-1.343
'0:02.257',3.417,10.174,10.38,-4.959,-4.714,10.324,6.251,2.966,6.886,7.345,2.079,-1.314
'0:02.261',3.396,10.147,10.375,-4.935,-4.721,10.307,6.249,2.963,6.896,7.34,2.079,-1.313
'0:02.265',3.396,10.166,10.394,-4.944,-4.731,10.327,6.242,2.958,6.906,7.33,2.07,-1.331
'0:02.268',3.396,10.194,10.422,-4.959,-4.745,10.354,6.244,2.956,6.912,7.305,2.036,-1.371
'0:02.272',3.379,10.164,10.408,-4.936,-4.746,10.332,6.245,2.953,6.897,7.297,2.029,-1.371
'0:02.276',3.411,10.164,10.377,-4.951,-4.715,10.317,6.251,2.976,6.89,7.324,2.061,-1.33
'0:02.280',3.4,10.151,10.375,-4.939,-4.72,10.309,6.256,2.976,6.887,7.337,2.079,-1.307
'0:02.284',3.391,10.171,10.403,-4.944,-4.739,10.333,6.249,2.976,6.896,7.341,2.072,-1.323
'0:02.288',3.399,10.193,10.418,-4.96,-4.742,10.352,6.255,2.972,6.902,7.314,2.044,-1.358
'0:02.292',3.393,10.178,10.408,-4.949,-4.74,10.339,6.254,2.97,6.874,7.302,2.032,-1.366
'0:02.296',3.397,10.156,10.382,-4.939,-4.725,10.315,6.255,2.973,6.909,7.313,2.037,-1.354
'0:02.300',3.393,10.144,10.375,-4.932,-4.723,10.305,6.255,2.973,6.857,7.335,2.061,-1.33
'0:02.304',3.387,10.168,10.404,-4.941,-4.741,10.332,6.263,2.979,6.882,7.339,2.064,-1.328
'0:02.307',3.384,10.186,10.426,-4.949,-4.753,10.353,6.256,2.974,6.904,7.316,2.042,-1.36
'0:02.311',3.394,10.176,10.405,-4.948,-4.738,10.337,6.257,2.98,6.888,7.305,2.031,-1.373
'0:02.315',3.394,10.157,10.386,-4.939,-4.728,10.318,6.256,2.972,6.865,7.313,2.038,-1.362
'0:02.319',3.388,10.147,10.382,-4.931,-4.729,10.311,6.258,2.976,6.899,7.329,2.061,-1.331
'0:02.323',3.403,10.165,10.385,-4.948,-4.723,10.322,6.255,2.976,6.879,7.329,2.062,-1.332
'0:02.327',3.391,10.185,10.418,-4.952,-4.745,10.348,6.256,2.975,6.889,7.32,2.042,-1.359
'0:02.331',3.379,10.177,10.421,-4.941,-4.753,10.345,6.26,2.975,6.917,7.311,2.029,-1.378
'0:02.335',3.392,10.166,10.398,-4.942,-4.735,10.329,6.272,2.996,6.907,7.318,2.033,-1.373
'0:02.339',3.377,10.14,10.387,-4.922,-4.738,10.31,6.317,3.044,6.879,7.305,2.011,-1.398
'0:02.342',3.382,10.142,10.383,-4.926,-4.733,10.309,6.343,3.1,6.867,7.308,1.98,-1.428
'0:02.346',3.463,10.125,10.285,-4.958,-4.644,10.252,6.352,3.168,6.839,7.356,2,-1.458
'0:02.350',3.475,10.099,10.248,-4.95,-4.619,10.22,6.386,3.258,6.807,7.479,2.086,-1.432
'0:02.354',3.527,10.12,10.216,-4.988,-4.576,10.214,6.392,3.293,6.817,7.768,2.321,-1.293
'0:02.358',3.614,10.131,10.14,-5.036,-4.496,10.182,6.295,3.224,6.797,8.267,2.795,-0.963
'0:02.362',3.669,10.204,10.159,-5.1,-4.477,10.228,6.145,3.065,6.812,8.763,3.305,-0.596
'0:02.366',3.702,10.353,10.274,-5.191,-4.518,10.359,5.94,2.793,6.903,9.291,3.895,-0.151
'0:02.370',3.669,10.459,10.414,-5.228,-4.605,10.483,5.793,2.547,7.002,9.556,4.207,0.103
'0:02.374',3.551,10.552,10.624,-5.215,-4.768,10.635,5.71,2.332,7.104,9.57,4.216,0.188
'0:02.377',3.493,10.509,10.64,-5.164,-4.806,10.621,5.569,2.124,7.095,9.106,3.983,0.197
'0:02.381',3.326,10.451,10.749,-5.052,-4.944,10.646,5.55,1.975,7.13,7.457,2.736,-0.392
'0:02.385',3.235,10.418,10.806,-4.99,-5.017,10.658,5.582,2.005,7.112,6.791,2.033,-0.872
'0:02.389',3.268,10.384,10.74,-4.989,-4.968,10.608,5.638,2.12,7.07,6.894,2.035,-0.942
'0:02.393',3.303,10.354,10.675,-4.992,-4.918,10.561,5.716,2.253,7.04,6.995,2.086,-0.939
'0:02.397',3.306,10.329,10.646,-4.981,-4.902,10.533,5.839,2.399,7.039,7.068,2.095,-0.974
'0:02.401',3.305,10.323,10.641,-4.978,-4.9,10.528,5.941,2.532,7.055,7.124,2.111,-0.991
'0:02.405',3.299,10.342,10.667,-4.984,-4.916,10.55,6.034,2.659,7.053,7.201,2.137,-1.013
'0:02.409',3.303,10.367,10.688,-4.998,-4.925,10.573,6.06,2.69,7.055,7.219,2.126,-1.051
'0:02.412',3.302,10.382,10.704,-5.006,-4.934,10.59,6.078,2.705,7.077,7.243,2.133,-1.061
'0:02.416',3.326,10.358,10.656,-5.006,-4.897,10.553,6.106,2.738,7.036,7.263,2.123,-1.083
'0:02.420',3.325,10.332,10.631,-4.992,-4.886,10.528,6.142,2.778,7.025,7.273,2.114,-1.112
'0:02.424',3.332,10.304,10.595,-4.982,-4.864,10.496,6.158,2.804,6.993,7.263,2.087,-1.154
'0:02.428',3.311,10.295,10.607,-4.966,-4.88,10.498,6.172,2.816,6.993,7.241,2.051,-1.216
'0:02.432',3.34,10.278,10.561,-4.972,-4.842,10.466,6.182,2.834,7.037,7.24,2.039,-1.239
'0:02.436',3.344,10.249,10.528,-4.96,-4.824,10.435,6.183,2.84,6.975,7.252,2.056,-1.209
'0:02.440',3.339,10.253,10.537,-4.96,-4.831,10.441,6.186,2.847,6.977,7.272,2.077,-1.185
'0:02.444',3.342,10.259,10.541,-4.964,-4.832,10.447,6.183,2.845,6.982,7.271,2.076,-1.201
'0:02.447',3.331,10.294,10.586,-4.976,-4.86,10.486,6.188,2.842,7.006,7.256,2.055,-1.225
'0:02.451',3.336,10.276,10.563,-4.969,-4.845,10.466,6.187,2.848,6.972,7.254,2.055,-1.235
'0:02.455',3.333,10.256,10.547,-4.959,-4.839,10.448,6.196,2.855,6.981,7.262,2.064,-1.22
'0:02.459',3.343,10.25,10.53,-4.96,-4.826,10.436,6.191,2.861,6.976,7.287,2.087,-1.178
'0:02.463',3.354,10.28,10.55,-4.981,-4.831,10.462,6.193,2.859,6.981,7.282,2.092,-1.185
'0:02.467',3.329,10.293,10.588,-4.974,-4.862,10.487,6.199,2.86,6.986,7.267,2.069,-1.214
'0:02.471',3.34,10.3,10.583,-4.984,-4.854,10.488,6.192,2.847,7.012,7.264,2.071,-1.219
'0:02.475',3.353,10.287,10.558,-4.984,-4.835,10.469,6.195,2.854,6.998,7.274,2.08,-1.204
'0:02.479',3.342,10.273,10.554,-4.971,-4.839,10.46,6.194,2.862,6.954,7.299,2.109,-1.159
'0:02.482',3.331,10.282,10.574,-4.97,-4.854,10.475,6.198,2.859,6.988,7.308,2.119,-1.146
'0:02.486',3.31,10.301,10.614,-4.969,-4.884,10.503,6.205,2.863,7.015,7.301,2.111,-1.16
'0:02.490',3.331,10.294,10.586,-4.976,-4.86,10.486,6.192,2.838,6.995,7.263,2.07,-1.202
'0:02.494',3.342,10.285,10.567,-4.977,-4.844,10.473,6.189,2.841,6.992,7.266,2.077,-1.193
'0:02.498',3.347,10.276,10.552,-4.975,-4.835,10.46,6.183,2.846,6.996,7.286,2.103,-1.157
'0:02.502',3.349,10.291,10.566,-4.984,-4.841,10.475,6.192,2.863,6.975,7.306,2.126,-1.134
'0:02.506',3.334,10.323,10.612,-4.992,-4.871,10.514,6.195,2.854,7.03,7.296,2.108,-1.151
'0:02.510',3.325,10.317,10.616,-4.985,-4.878,10.513,6.198,2.857,6.993,7.287,2.102,-1.178
'0:02.514',3.345,10.327,10.605,-4.999,-4.863,10.512,6.193,2.86,7.012,7.297,2.112,-1.151
'0:02.518',3.354,10.31,10.579,-4.996,-4.844,10.491,6.194,2.863,7.008,7.319,2.146,-1.103
'0:02.521',3.356,10.309,10.576,-4.996,-4.842,10.489,6.194,2.864,6.994,7.334,2.164,-1.081
'0:02.525',3.351,10.344,10.617,-5.011,-4.866,10.526,6.194,2.861,7.03,7.327,2.157,-1.096
'0:02.529',3.328,10.338,10.634,-4.996,-4.886,10.532,6.193,2.862,7.016,7.31,2.134,-1.122
'0:02.533',3.336,10.329,10.616,-4.996,-4.872,10.519,6.198,2.865,6.999,7.315,2.144,-1.108
'0:02.537',3.35,10.309,10.583,-4.993,-4.849,10.493,6.198,2.868,6.985,7.336,2.17,-1.072
'0:02.541',3.349,10.306,10.581,-4.991,-4.848,10.49,6.194,2.878,7,7.354,2.198,-1.041
'0:02.545',3.337,10.337,10.623,-5.001,-4.875,10.526,6.204,2.888,7.061,7.354,2.196,-1.046
'0:02.549',3.329,10.352,10.646,-5.004,-4.89,10.545,6.195,2.878,7.043,7.345,2.184,-1.066
'0:02.553',3.336,10.351,10.638,-5.007,-4.883,10.541,6.2,2.886,6.999,7.346,2.186,-1.075
'0:02.556',3.359,10.34,10.604,-5.013,-4.855,10.519,6.201,2.897,6.997,7.379,2.212,-1.04
'0:02.560',3.346,10.327,10.604,-5,-4.862,10.512,6.209,2.911,6.972,7.4,2.233,-1.004
'0:02.564',3.35,10.362,10.636,-5.019,-4.875,10.546,6.213,2.921,7.009,7.408,2.251,-0.998
'0:02.568',3.333,10.376,10.666,-5.018,-4.898,10.567,6.21,2.918,7.047,7.399,2.228,-1.021
'0:02.572',3.358,10.384,10.649,-5.035,-4.878,10.563,6.215,2.926,7.041,7.404,2.23,-1.019
'0:02.576',3.362,10.363,10.624,-5.026,-4.864,10.54,6.232,2.953,7.013,7.431,2.271,-0.988
'0:02.580',3.358,10.36,10.625,-5.023,-4.866,10.539,6.232,2.96,7.049,7.459,2.295,-0.954
'0:02.584',3.359,10.376,10.64,-5.031,-4.872,10.554,6.239,2.981,7.041,7.475,2.312,-0.955
'0:02.588',3.359,10.409,10.673,-5.048,-4.89,10.588,6.249,2.988,7.08,7.477,2.297,-0.974
'0:02.591',3.377,10.41,10.657,-5.057,-4.872,10.58,6.254,3.003,7.085,7.477,2.302,-0.973
'0:02.595',3.383,10.398,10.638,-5.054,-4.86,10.564,6.26,3.027,7.066,7.504,2.322,-0.949
'0:02.599',3.373,10.378,10.628,-5.038,-4.86,10.549,6.265,3.043,7.053,7.526,2.345,-0.929
'0:02.603',3.383,10.409,10.649,-5.06,-4.866,10.575,6.281,3.071,7.051,7.555,2.362,-0.923
'0:02.607',3.369,10.429,10.684,-5.062,-4.89,10.603,6.284,3.079,7.077,7.549,2.345,-0.953
'0:02.611',3.385,10.422,10.66,-5.067,-4.869,10.587,6.296,3.1,7.073,7.561,2.35,-0.962
'0:02.615',3.394,10.406,10.636,-5.063,-4.853,10.568,6.303,3.11,7.06,7.581,2.365,-0.949
'0:02.619',3.404,10.391,10.61,-5.061,-4.835,10.547,6.311,3.127,7.044,7.609,2.395,-0.926
'0:02.623',3.411,10.393,10.605,-5.065,-4.829,10.546,6.32,3.149,7.034,7.625,2.402,-0.929
'0:02.626',3.378,10.414,10.66,-5.06,-4.873,10.583,6.325,3.163,7.059,7.622,2.382,-0.962
'0:02.630',3.379,10.423,10.667,-5.064,-4.876,10.591,6.345,3.2,7.071,7.636,2.385,-0.978
'0:02.634',3.422,10.396,10.598,-5.072,-4.82,10.543,6.341,3.196,7.048,7.64,2.382,-0.986
'0:02.638',3.433,10.36,10.55,-5.061,-4.791,10.501,6.354,3.215,7.059,7.662,2.393,-0.969
'0:02.642',3.446,10.365,10.543,-5.069,-4.781,10.5,6.36,3.234,7.009,7.686,2.418,-0.962
'0:02.646',3.44,10.395,10.578,-5.081,-4.801,10.533,6.363,3.233,7.013,7.672,2.39,-1.001
'0:02.650',3.442,10.384,10.566,-5.077,-4.794,10.522,6.366,3.234,6.988,7.674,2.38,-1.032
'0:02.654',3.449,10.357,10.532,-5.066,-4.774,10.491,6.364,3.228,7.002,7.672,2.372,-1.051
'0:02.658',3.444,10.317,10.497,-5.044,-4.759,10.453,6.373,3.234,6.948,7.696,2.388,-1.037
'0:02.661',3.446,10.305,10.482,-5.038,-4.75,10.44,6.364,3.229,6.983,7.694,2.384,-1.047
'0:02.665',3.442,10.302,10.483,-5.036,-4.753,10.439,6.348,3.21,6.944,7.672,2.354,-1.104
'0:02.669',3.433,10.282,10.473,-5.021,-4.752,10.424,6.339,3.189,6.979,7.646,2.306,-1.159
'0:02.673',3.448,10.278,10.453,-5.026,-4.735,10.412,6.34,3.18,6.958,7.626,2.286,-1.171
'0:02.677',3.45,10.249,10.423,-5.012,-4.719,10.382,6.334,3.17,6.969,7.617,2.277,-1.177
'0:02.681',3.447,10.244,10.421,-5.009,-4.72,10.378,6.332,3.152,6.917,7.604,2.257,-1.194
'0:02.685',3.433,10.249,10.439,-5.005,-4.735,10.39,6.328,3.144,6.934,7.578,2.231,-1.227
'0:02.689',3.444,10.241,10.421,-5.006,-4.72,10.378,6.31,3.118,6.913,7.524,2.173,-1.296
'0:02.693',3.452,10.223,10.394,-5.001,-4.703,10.354,6.312,3.11,6.913,7.498,2.15,-1.309
'0:02.696',3.442,10.202,10.383,-4.986,-4.703,10.339,6.311,3.098,6.87,7.49,2.154,-1.287
'0:02.700',3.423,10.187,10.388,-4.968,-4.715,10.334,6.306,3.085,6.904,7.492,2.165,-1.27
'0:02.704',3.413,10.199,10.409,-4.969,-4.73,10.351,6.303,3.074,6.893,7.473,2.14,-1.292
'0:02.708',3.389,10.207,10.442,-4.962,-4.759,10.371,6.306,3.066,6.91,7.427,2.099,-1.351
'0:02.712',3.397,10.211,10.438,-4.967,-4.753,10.371,6.297,3.042,6.935,7.41,2.078,-1.359
'0:02.716',3.401,10.179,10.402,-4.953,-4.733,10.336,6.295,3.047,6.89,7.413,2.087,-1.347
'0:02.720',3.398,10.158,10.383,-4.941,-4.725,10.317,6.293,3.049,6.868,7.42,2.1,-1.313
'0:02.724',3.395,10.168,10.397,-4.945,-4.733,10.329,6.283,3.032,6.89,7.396,2.074,-1.334
'0:02.728',3.373,10.183,10.434,-4.941,-4.763,10.355,6.275,3.012,6.908,7.366,2.04,-1.379
'0:02.732',3.385,10.19,10.428,-4.951,-4.754,10.355,6.282,3.015,6.915,7.353,2.031,-1.396
'0:02.735',3.407,10.185,10.402,-4.96,-4.729,10.34,6.27,3.016,6.894,7.361,2.039,-1.377
'0:02.739',3.408,10.173,10.388,-4.954,-4.722,10.327,6.278,3.011,6.875,7.378,2.061,-1.346
'0:02.743',3.387,10.176,10.412,-4.945,-4.744,10.34,6.283,3.012,6.919,7.378,2.065,-1.35
'0:02.747',3.382,10.213,10.454,-4.962,-4.768,10.38,6.286,3.006,6.919,7.362,2.046,-1.375
'0:02.751',3.388,10.212,10.448,-4.963,-4.762,10.377,6.278,3.012,6.93,7.34,2.025,-1.392
'0:02.755',3.378,10.183,10.427,-4.944,-4.757,10.352,6.283,3.022,6.944,7.354,2.044,-1.38
'0:02.759',3.381,10.172,10.414,-4.94,-4.748,10.339,6.281,3.017,6.918,7.376,2.066,-1.339
'0:02.763',3.399,10.192,10.417,-4.959,-4.742,10.351,6.28,3.01,6.882,7.375,2.064,-1.337
'0:02.767',3.4,10.203,10.427,-4.964,-4.745,10.361,6.268,2.996,6.89,7.35,2.036,-1.379
'0:02.770',3.386,10.199,10.436,-4.956,-4.757,10.364,6.276,3.001,6.899,7.344,2.025,-1.4
'0:02.774',3.388,10.178,10.413,-4.946,-4.744,10.342,6.275,3.005,6.877,7.344,2.033,-1.391
'0:02.778',3.395,10.171,10.4,-4.946,-4.735,10.331,6.278,3.017,6.891,7.368,2.06,-1.355
'0:02.782',3.386,10.18,10.417,-4.946,-4.747,10.345,6.271,3.012,6.897,7.38,2.069,-1.342
'0:02.786',3.376,10.198,10.446,-4.95,-4.768,10.368,6.279,3.009,6.932,7.363,2.046,-1.364
'0:02.790',3.394,10.216,10.446,-4.968,-4.758,10.378,6.274,3.007,6.968,7.356,2.031,-1.377
'0:02.794',3.394,10.199,10.428,-4.96,-4.749,10.36,6.284,3.023,6.94,7.357,2.036,-1.38
'0:02.798',3.394,10.178,10.407,-4.949,-4.739,10.339,6.29,3.02,6.914,7.375,2.052,-1.358
'0:02.802',3.391,10.18,10.412,-4.949,-4.743,10.342,6.286,3.017,6.91,7.381,2.06,-1.356
'0:02.805',3.386,10.205,10.442,-4.959,-4.76,10.37,6.284,3.016,6.924,7.37,2.049,-1.374
'0:02.809',3.394,10.204,10.433,-4.963,-4.752,10.365,6.27,3.008,6.901,7.343,2.015,-1.403
'0:02.813',3.387,10.197,10.433,-4.956,-4.755,10.361,6.28,3.017,6.922,7.334,2.018,-1.402
'0:02.817',3.393,10.177,10.407,-4.948,-4.74,10.338,6.285,3.023,6.897,7.359,2.049,-1.372
'0:02.821',3.379,10.176,10.42,-4.941,-4.752,10.344,6.282,3.019,6.915,7.372,2.065,-1.348
'0:02.825',3.375,10.183,10.432,-4.942,-4.761,10.354,6.28,3.012,6.907,7.368,2.052,-1.366
'0:02.829',3.378,10.2,10.445,-4.953,-4.766,10.369,6.28,3.019,6.924,7.351,2.034,-1.394
'0:02.833',3.395,10.192,10.421,-4.957,-4.745,10.353,6.293,3.028,6.9,7.355,2.042,-1.387
'0:02.837',3.385,10.174,10.412,-4.943,-4.745,10.339,6.296,3.037,6.917,7.376,2.06,-1.355
'0:02.840',3.394,10.18,10.409,-4.95,-4.74,10.341,6.293,3.034,6.904,7.379,2.067,-1.343
'0:02.844',3.389,10.195,10.429,-4.956,-4.752,10.358,6.284,3.017,6.906,7.366,2.052,-1.371
'0:02.848',3.385,10.205,10.443,-4.959,-4.761,10.37,6.288,3.014,6.916,7.343,2.025,-1.404
'0:02.852',3.387,10.189,10.426,-4.952,-4.751,10.354,6.284,3.014,6.895,7.346,2.024,-1.399
'0:02.856',3.389,10.165,10.4,-4.94,-4.738,10.329,6.276,3.011,6.916,7.343,2.031,-1.388
'0:02.860',3.389,10.171,10.405,-4.943,-4.741,10.334,6.279,3.013,6.903,7.365,2.055,-1.358
'0:02.864',3.384,10.194,10.433,-4.953,-4.757,10.36,6.288,3.011,6.91,7.37,2.06,-1.373
'0:02.868',3.381,10.21,10.452,-4.96,-4.768,10.378,6.279,2.999,6.911,7.333,2.018,-1.41
'0:02.872',3.389,10.195,10.429,-4.956,-4.752,10.358,6.271,2.988,6.951,7.322,2.002,-1.423
'0:02.875',3.392,10.174,10.405,-4.946,-4.739,10.336,6.275,3.014,6.922,7.332,2.026,-1.392
'0:02.879',3.382,10.159,10.401,-4.935,-4.742,10.327,6.279,3.017,6.855,7.368,2.071,-1.337
'0:02.883',3.386,10.168,10.405,-4.94,-4.742,10.333,6.274,3.009,6.879,7.361,2.065,-1.342
'0:02.887',3.341,10.183,10.465,-4.925,-4.794,10.37,6.28,3.007,6.906,7.345,2.043,-1.381
'0:02.891',3.378,10.183,10.428,-4.943,-4.758,10.352,6.276,3,6.904,7.331,2.034,-1.395
'0:02.895',3.38,10.151,10.394,-4.929,-4.739,10.319,6.279,3.001,6.874,7.334,2.039,-1.386
'0:02.899',3.378,10.157,10.402,-4.931,-4.744,10.326,6.28,3.001,6.839,7.35,2.056,-1.348
'0:02.903',3.383,10.174,10.414,-4.942,-4.747,10.34,6.285,3.012,6.899,7.354,2.063,-1.345
'0:02.907',3.383,10.202,10.442,-4.956,-4.762,10.368,6.277,3.006,6.924,7.344,2.046,-1.377
'0:02.911',3.4,10.207,10.431,-4.967,-4.748,10.366,6.272,2.998,6.926,7.335,2.038,-1.386
'0:02.914',3.388,10.169,10.404,-4.942,-4.741,10.333,6.27,2.996,6.925,7.329,2.031,-1.395
'0:02.918',3.4,10.156,10.379,-4.941,-4.722,10.314,6.28,3.006,6.889,7.349,2.058,-1.368
'0:02.922',3.392,10.165,10.397,-4.942,-4.735,10.328,6.271,2.998,6.885,7.349,2.051,-1.366
'0:02.926',3.381,10.188,10.43,-4.948,-4.757,10.355,6.272,2.988,6.917,7.338,2.039,-1.391
'0:02.930',3.38,10.191,10.434,-4.949,-4.759,10.359,6.266,2.983,6.918,7.317,2.024,-1.401
'0:02.934',3.381,10.174,10.416,-4.941,-4.749,10.341,6.271,2.986,6.891,7.32,2.031,-1.39
'0:02.938',3.399,10.157,10.381,-4.941,-4.723,10.315,6.275,3.003,6.874,7.35,2.066,-1.35
'0:02.942',3.377,10.154,10.401,-4.929,-4.744,10.324,6.269,2.996,6.89,7.353,2.073,-1.345
'0:02.946',3.37,10.179,10.432,-4.938,-4.764,10.352,6.276,2.996,6.91,7.346,2.058,-1.378
'0:02.949',3.374,10.187,10.437,-4.944,-4.764,10.358,6.271,2.997,6.935,7.334,2.044,-1.392
'0:02.953',3.372,10.164,10.416,-4.932,-4.754,10.336,6.274,2.999,6.908,7.332,2.039,-1.385
'0:02.957',3.396,10.156,10.383,-4.939,-4.726,10.316,6.275,3.005,6.895,7.343,2.061,-1.347
'0:02.961',3.405,10.177,10.395,-4.955,-4.727,10.332,6.273,2.995,6.889,7.363,2.079,-1.322
'0:02.965',3.392,10.184,10.416,-4.952,-4.744,10.347,6.266,2.991,6.899,7.345,2.066,-1.349
'0:02.969',3.379,10.194,10.438,-4.95,-4.762,10.362,6.266,2.988,6.907,7.329,2.044,-1.389
'0:02.973',3.38,10.184,10.427,-4.946,-4.756,10.353,6.271,2.988,6.9,7.329,2.041,-1.384
'0:02.977',3.378,10.145,10.391,-4.925,-4.739,10.314,6.271,2.99,6.896,7.338,2.055,-1.363
'0:02.981',3.382,10.137,10.378,-4.923,-4.73,10.305,6.271,2.993,6.864,7.348,2.064,-1.343
'0:02.984',3.397,10.171,10.398,-4.947,-4.733,10.33,6.275,2.989,6.936,7.336,2.043,-1.371
'0:02.988',3.366,10.177,10.434,-4.935,-4.767,10.352,6.266,2.974,6.867,7.312,2.019,-1.407
'0:02.992',3.381,10.176,10.418,-4.942,-4.75,10.343,6.262,2.975,6.885,7.321,2.031,-1.396
'0:02.996',3.379,10.154,10.398,-4.93,-4.742,10.322,6.267,2.996,6.874,7.336,2.049,-1.377
'0:03.000',3.393,10.156,10.386,-4.938,-4.729,10.317,6.266,2.993,6.895,7.357,2.071,-1.341
'0:03.004',3.368,10.173,10.428,-4.934,-4.763,10.347,6.27,2.992,6.876,7.347,2.058,-1.35
'0:03.008',3.368,10.193,10.449,-4.944,-4.772,10.367,6.277,2.99,6.859,7.332,2.039,-1.379
'0:03.012',3.393,10.172,10.402,-4.946,-4.737,10.333,6.258,2.972,6.908,7.315,2.025,-1.4
'0:03.016',3.406,10.166,10.383,-4.95,-4.72,10.321,6.268,2.991,6.901,7.334,2.052,-1.371
'0:03.019',3.378,10.159,10.403,-4.932,-4.744,10.328,6.272,2.989,6.893,7.357,2.078,-1.345
'0:03.023',3.389,10.174,10.408,-4.945,-4.742,10.337,6.27,2.989,6.891,7.348,2.068,-1.355
'0:03.027',3.367,10.193,10.45,-4.943,-4.773,10.368,6.269,2.977,6.935,7.328,2.038,-1.394
'0:03.031',3.368,10.176,10.431,-4.936,-4.764,10.35,6.279,2.983,6.903,7.324,2.031,-1.399
'0:03.035',3.383,10.173,10.413,-4.941,-4.747,10.339,6.282,3.001,6.915,7.34,2.054,-1.36
'0:03.039',3.384,10.194,10.433,-4.953,-4.757,10.36,6.278,3,6.923,7.364,2.082,-1.327
'0:03.043',3.386,10.213,10.451,-4.963,-4.765,10.378,6.285,3.004,6.917,7.37,2.084,-1.329
'0:03.047',3.395,10.237,10.466,-4.98,-4.768,10.398,6.282,2.992,6.972,7.35,2.062,-1.368
'0:03.051',3.374,10.236,10.486,-4.968,-4.789,10.407,6.285,2.998,6.941,7.342,2.038,-1.389
'0:03.054',3.381,10.234,10.476,-4.971,-4.78,10.402,6.292,3.007,6.924,7.35,2.052,-1.364
'0:03.058',3.396,10.23,10.457,-4.976,-4.763,10.39,6.292,3.017,6.954,7.384,2.091,-1.329
'0:03.062',3.402,10.248,10.469,-4.988,-4.766,10.404,6.28,3.006,6.961,7.388,2.101,-1.324
'0:03.066',3.374,10.292,10.542,-4.996,-4.817,10.463,6.279,3.006,7.005,7.393,2.095,-1.339
'0:03.070',3.403,10.313,10.533,-5.022,-4.797,10.47,6.251,2.977,6.988,7.376,2.075,-1.354
'0:03.074',3.408,10.31,10.525,-5.023,-4.791,10.464,6.248,2.967,6.975,7.369,2.076,-1.342
'0:03.078',3.402,10.27,10.491,-5,-4.776,10.427,6.251,2.969,6.963,7.394,2.104,-1.313
'0:03.082',3.393,10.25,10.48,-4.985,-4.776,10.411,6.256,2.977,6.951,7.407,2.126,-1.293
'0:03.086',3.381,10.29,10.532,-4.999,-4.808,10.457,6.264,2.991,6.967,7.42,2.128,-1.29
'0:03.089',3.39,10.285,10.519,-5.001,-4.796,10.449,6.26,2.994,6.972,7.41,2.116,-1.305
'0:03.093',3.395,10.246,10.475,-4.984,-4.772,10.406,6.27,3.003,6.956,7.412,2.128,-1.293
'0:03.097',3.412,10.218,10.429,-4.979,-4.741,10.37,6.264,2.995,6.961,7.408,2.134,-1.268
'0:03.101',3.407,10.2,10.416,-4.967,-4.737,10.354,6.254,2.988,6.905,7.421,2.15,-1.256
'0:03.105',3.399,10.2,10.425,-4.963,-4.745,10.358,6.247,2.977,6.96,7.398,2.124,-1.279
'0:03.109',3.379,10.21,10.454,-4.959,-4.769,10.378,6.254,2.995,6.93,7.373,2.088,-1.334
'0:03.113',3.413,10.209,10.42,-4.975,-4.736,10.361,6.254,2.992,6.884,7.375,2.087,-1.341
'0:03.117',3.407,10.185,10.402,-4.96,-4.729,10.34,6.261,2.994,6.871,7.378,2.081,-1.336
'0:03.121',3.385,10.177,10.415,-4.944,-4.747,10.342,6.268,2.997,6.873,7.387,2.094,-1.325
'0:03.125',3.377,10.191,10.438,-4.947,-4.763,10.361,6.264,2.992,6.895,7.371,2.087,-1.335
'0:03.128',3.367,10.19,10.447,-4.942,-4.772,10.365,6.264,2.984,6.892,7.335,2.05,-1.372
'0:03.132',3.353,10.162,10.433,-4.921,-4.772,10.344,6.265,2.979,6.915,7.331,2.041,-1.376
'0:03.136',3.354,10.137,10.407,-4.909,-4.759,10.319,6.267,2.987,6.884,7.35,2.075,-1.34
'0:03.140',3.388,10.134,10.37,-4.925,-4.723,10.299,6.26,2.987,6.893,7.354,2.085,-1.334
'0:03.144',3.381,10.164,10.406,-4.937,-4.744,10.331,6.264,2.987,6.888,7.355,2.084,-1.344
'0:03.148',3.368,10.179,10.434,-4.937,-4.766,10.353,6.257,2.981,6.887,7.341,2.051,-1.381
'0:03.152',3.4,10.182,10.405,-4.954,-4.735,10.34,6.255,2.979,6.895,7.329,2.038,-1.389
'0:03.156',3.398,10.156,10.381,-4.94,-4.724,10.315,6.266,2.989,6.854,7.345,2.057,-1.358
'0:03.160',3.393,10.143,10.374,-4.932,-4.722,10.305,6.266,2.989,6.89,7.356,2.079,-1.34
'0:03.163',3.387,10.164,10.401,-4.939,-4.739,10.329,6.27,2.993,6.893,7.357,2.082,-1.341
'0:03.167',3.354,10.177,10.446,-4.929,-4.778,10.357,6.276,2.987,6.882,7.342,2.051,-1.377
'0:03.171',3.372,10.169,10.421,-4.934,-4.757,10.341,6.27,2.995,6.93,7.329,2.042,-1.386
'0:03.175',3.382,10.151,10.392,-4.93,-4.737,10.318,6.26,2.983,6.881,7.335,2.059,-1.361
'0:03.179',3.38,10.146,10.389,-4.927,-4.737,10.314,6.266,2.986,6.868,7.354,2.076,-1.34
'0:03.183',3.372,10.154,10.405,-4.926,-4.749,10.326,6.275,3.001,6.857,7.362,2.08,-1.347
'0:03.187',3.361,10.18,10.442,-4.934,-4.772,10.357,6.271,2.987,6.904,7.34,2.055,-1.379
'0:03.191',3.372,10.159,10.41,-4.929,-4.751,10.33,6.275,2.999,6.874,7.333,2.042,-1.392
'0:03.195',3.372,10.143,10.395,-4.921,-4.744,10.315,6.274,2.991,6.865,7.337,2.049,-1.373
'0:03.198',3.372,10.138,10.39,-4.918,-4.742,10.31,6.272,2.993,6.861,7.354,2.082,-1.337
'0:03.202',3.36,10.143,10.406,-4.915,-4.755,10.321,6.273,2.989,6.898,7.358,2.079,-1.339
'0:03.206',3.358,10.167,10.432,-4.926,-4.769,10.346,6.293,3.011,6.866,7.335,2.039,-1.392
'0:03.210',3.359,10.136,10.401,-4.912,-4.753,10.315,6.334,3.06,6.873,7.288,1.963,-1.48
'0:03.214',3.406,10.114,10.331,-4.924,-4.695,10.269,6.343,3.109,6.835,7.337,1.988,-1.489
'0:03.218',3.456,10.077,10.244,-4.93,-4.626,10.207,6.373,3.214,6.831,7.457,2.08,-1.426
'0:03.222',3.482,10.086,10.228,-4.948,-4.605,10.204,6.407,3.286,6.814,7.653,2.209,-1.375
'0:03.226',3.516,10.156,10.263,-4.999,-4.606,10.256,6.385,3.29,6.828,8.024,2.515,-1.186
'0:03.230',3.575,10.215,10.263,-5.059,-4.576,10.285,6.275,3.209,6.852,8.516,2.975,-0.859
'0:03.233',3.62,10.301,10.305,-5.124,-4.574,10.349,6.12,3.013,6.891,8.988,3.485,-0.451
'0:03.237',3.636,10.43,10.418,-5.197,-4.623,10.471,5.946,2.774,6.973,9.462,3.999,-0.04
'0:03.241',3.573,10.539,10.589,-5.22,-4.74,10.61,5.818,2.524,7.109,9.573,4.113,0.105
'0:03.245',3.472,10.594,10.745,-5.196,-4.869,10.716,5.719,2.352,7.18,9.453,4.034,0.126
'0:03.249',3.385,10.515,10.753,-5.113,-4.916,10.68,5.601,2.132,7.12,8.347,3.341,-0.162
'0:03.253',3.25,10.452,10.826,-5.014,-5.02,10.686,5.637,2.098,7.147,6.95,2.183,-0.81
'0:03.257',3.239,10.375,10.759,-4.97,-4.992,10.613,5.666,2.172,7.09,6.81,1.963,-1.008
'0:03.261',3.235,10.34,10.728,-4.951,-4.979,10.58,5.714,2.268,7.052,6.97,2.061,-0.969
'0:03.265',3.27,10.334,10.688,-4.965,-4.941,10.557,5.787,2.363,7.044,7.028,2.062,-1.016
'0:03.268',3.301,10.333,10.656,-4.981,-4.91,10.541,5.875,2.482,7.031,7.061,2.037,-1.091
'0:03.272',3.319,10.328,10.632,-4.987,-4.889,10.526,5.97,2.595,7.016,7.105,2.047,-1.115
'0:03.276',3.321,10.323,10.625,-4.986,-4.885,10.521,6.06,2.708,7.035,7.214,2.11,-1.08
'0:03.280',3.305,10.337,10.656,-4.985,-4.908,10.543,6.092,2.74,7.034,7.272,2.151,-1.05
'0:03.284',3.296,10.361,10.689,-4.992,-4.929,10.572,6.115,2.755,7.065,7.28,2.136,-1.084
'0:03.288',3.291,10.357,10.69,-4.988,-4.932,10.57,6.135,2.783,7.041,7.258,2.08,-1.182
'0:03.292',3.302,10.31,10.632,-4.969,-4.897,10.518,6.153,2.803,7.032,7.25,2.06,-1.218
'0:03.296',3.315,10.261,10.57,-4.952,-4.86,10.462,6.171,2.829,6.979,7.264,2.061,-1.21
'0:03.300',3.325,10.245,10.544,-4.948,-4.841,10.441,6.183,2.854,6.991,7.284,2.086,-1.195
'0:03.304',3.328,10.262,10.558,-4.959,-4.847,10.456,6.192,2.857,6.976,7.288,2.079,-1.217
'0:03.307',3.322,10.292,10.594,-4.97,-4.868,10.489,6.193,2.852,7.017,7.272,2.048,-1.26
'0:03.311',3.325,10.276,10.574,-4.963,-4.857,10.472,6.195,2.848,7.002,7.258,2.036,-1.266
'0:03.315',3.319,10.243,10.548,-4.944,-4.846,10.442,6.189,2.856,7.009,7.274,2.047,-1.243
'0:03.319',3.333,10.24,10.53,-4.95,-4.831,10.431,6.198,2.875,6.958,7.3,2.09,-1.201
'0:03.323',3.335,10.264,10.552,-4.963,-4.841,10.454,6.197,2.869,6.971,7.303,2.085,-1.197
'0:03.327',3.316,10.291,10.598,-4.967,-4.873,10.491,6.199,2.865,6.991,7.287,2.074,-1.22
'0:03.331',3.327,10.283,10.58,-4.968,-4.859,10.478,6.202,2.867,7.004,7.282,2.064,-1.232
'0:03.335',3.329,10.26,10.555,-4.958,-4.845,10.454,6.199,2.86,6.956,7.282,2.073,-1.22
'0:03.339',3.33,10.253,10.546,-4.955,-4.84,10.446,6.207,2.871,6.971,7.309,2.102,-1.183
'0:03.342',3.326,10.265,10.563,-4.959,-4.851,10.46,6.205,2.873,6.951,7.31,2.106,-1.175
'0:03.346',3.311,10.278,10.59,-4.958,-4.871,10.48,6.198,2.871,7.001,7.296,2.086,-1.201
'0:03.350',3.315,10.283,10.592,-4.963,-4.87,10.484,6.196,2.862,6.979,7.283,2.062,-1.226
'0:03.354',3.322,10.28,10.581,-4.964,-4.862,10.476,6.196,2.861,6.997,7.284,2.077,-1.215
'0:03.358',3.323,10.261,10.562,-4.956,-4.852,10.458,6.195,2.863,6.988,7.303,2.099,-1.18
'0:03.362',3.33,10.278,10.571,-4.967,-4.852,10.471,6.195,2.866,6.988,7.322,2.129,-1.144
'0:03.366',3.319,10.296,10.6,-4.971,-4.873,10.495,6.191,2.85,7.015,7.301,2.107,-1.171
'0:03.370',3.329,10.302,10.597,-4.979,-4.866,10.496,6.194,2.858,7.008,7.3,2.097,-1.195
'0:03.374',3.329,10.287,10.581,-4.972,-4.858,10.48,6.195,2.859,6.993,7.299,2.093,-1.197
'0:03.377',3.332,10.279,10.57,-4.969,-4.851,10.471,6.189,2.862,7.012,7.318,2.111,-1.167
'0:03.381',3.324,10.286,10.586,-4.968,-4.864,10.482,6.194,2.858,7.025,7.326,2.133,-1.138
'0:03.385',3.333,10.312,10.602,-4.987,-4.866,10.503,6.194,2.866,7.027,7.327,2.13,-1.14
'0:03.389',3.319,10.314,10.619,-4.98,-4.882,10.513,6.192,2.862,7,7.312,2.116,-1.152
'0:03.393',3.317,10.301,10.607,-4.972,-4.877,10.5,6.194,2.866,6.993,7.321,2.133,-1.137
'0:03.397',3.304,10.288,10.608,-4.96,-4.885,10.495,6.21,2.883,6.979,7.341,2.157,-1.106
'0:03.401',3.321,10.303,10.605,-4.975,-4.874,10.5,6.203,2.874,6.997,7.359,2.17,-1.083
'0:03.405',3.36,10.335,10.598,-5.012,-4.851,10.513,6.193,2.866,7.021,7.347,2.158,-1.106
'0:03.409',3.337,10.353,10.639,-5.009,-4.883,10.542,6.193,2.865,7.027,7.332,2.139,-1.13
'0:03.412',3.334,10.331,10.621,-4.996,-4.875,10.523,6.202,2.876,7.006,7.34,2.158,-1.109
'0:03.416',3.336,10.304,10.591,-4.984,-4.86,10.494,6.2,2.88,7.002,7.356,2.182,-1.077
'0:03.420',3.347,10.314,10.591,-4.994,-4.854,10.499,6.198,2.886,7.009,7.386,2.208,-1.05
'0:03.424',3.334,10.341,10.63,-5.001,-4.88,10.532,6.2,2.89,7.003,7.388,2.208,-1.052
'0:03.428',3.335,10.356,10.645,-5.01,-4.887,10.547,6.202,2.902,7.047,7.382,2.197,-1.078
'0:03.432',3.328,10.353,10.648,-5.004,-4.892,10.547,6.209,2.901,7.054,7.378,2.195,-1.08
'0:03.436',3.331,10.345,10.637,-5.002,-4.885,10.537,6.22,2.917,7.011,7.408,2.231,-1.033
'0:03.440',3.33,10.338,10.631,-4.998,-4.883,10.531,6.223,2.923,7.027,7.442,2.262,-0.991
'0:03.444',3.336,10.354,10.642,-5.009,-4.885,10.545,6.229,2.95,7.044,7.447,2.263,-0.998
'0:03.447',3.34,10.386,10.67,-5.027,-4.897,10.574,6.232,2.956,7.056,7.443,2.251,-1.02
'0:03.451',3.351,10.379,10.652,-5.029,-4.883,10.562,6.236,2.96,7.009,7.435,2.242,-1.031
'0:03.455',3.351,10.368,10.641,-5.023,-4.877,10.55,6.245,2.979,7.048,7.466,2.276,-1.005
'0:03.459',3.349,10.359,10.634,-5.017,-4.875,10.543,6.249,2.992,7.04,7.495,2.307,-0.966
'0:03.463',3.348,10.372,10.647,-5.023,-4.882,10.556,6.256,3.005,7.05,7.517,2.323,-0.963
'0:03.467',3.354,10.404,10.673,-5.043,-4.891,10.585,6.26,3.014,7.085,7.513,2.309,-0.983
'0:03.471',3.356,10.41,10.677,-5.047,-4.892,10.59,6.264,3.026,7.085,7.519,2.306,-0.998
'0:03.475',3.362,10.388,10.649,-5.038,-4.876,10.565,6.279,3.042,7.071,7.537,2.324,-0.984
'0:03.479',3.367,10.378,10.635,-5.037,-4.866,10.553,6.289,3.08,7.046,7.581,2.363,-0.942
'0:03.482',3.378,10.401,10.646,-5.053,-4.866,10.57,6.294,3.095,7.069,7.605,2.375,-0.939
'0:03.486',3.37,10.426,10.679,-5.061,-4.887,10.598,6.305,3.106,7.088,7.592,2.354,-0.978
'0:03.490',3.373,10.414,10.665,-5.057,-4.878,10.586,6.312,3.121,7.046,7.593,2.344,-1
'0:03.494',3.377,10.401,10.647,-5.052,-4.867,10.571,6.324,3.135,7.046,7.618,2.37,-0.982
'0:03.498',3.397,10.389,10.616,-5.057,-4.841,10.549,6.338,3.165,7.034,7.649,2.393,-0.955
'0:03.502',3.402,10.4,10.622,-5.064,-4.842,10.557,6.348,3.176,7.044,7.666,2.406,-0.958
'0:03.506',3.406,10.416,10.633,-5.075,-4.845,10.571,6.346,3.179,7.062,7.658,2.38,-0.997
'0:03.510',3.409,10.399,10.613,-5.067,-4.834,10.552,6.356,3.192,7.041,7.652,2.364,-1.024
'0:03.514',3.402,10.367,10.588,-5.048,-4.825,10.524,6.361,3.202,7.02,7.666,2.366,-1.031
'0:03.518',3.427,10.346,10.543,-5.05,-4.791,10.491,6.354,3.199,7.006,7.686,2.379,-1.019
'0:03.521',3.408,10.332,10.548,-5.034,-4.802,10.486,6.353,3.196,7.022,7.695,2.377,-1.035
'0:03.525',3.411,10.35,10.562,-5.044,-4.808,10.502,6.357,3.202,7.007,7.686,2.364,-1.068
'0:03.529',3.405,10.332,10.55,-5.033,-4.805,10.488,6.351,3.185,7.009,7.672,2.329,-1.11
'0:03.533',3.398,10.303,10.528,-5.013,-4.797,10.462,6.354,3.195,6.946,7.675,2.334,-1.122
'0:03.537',3.437,10.279,10.465,-5.021,-4.746,10.418,6.354,3.192,6.922,7.675,2.333,-1.116
'0:03.541',3.445,10.264,10.443,-5.018,-4.731,10.4,6.341,3.175,6.94,7.678,2.33,-1.119
'0:03.545',3.43,10.279,10.472,-5.018,-4.753,10.422,6.343,3.168,6.951,7.658,2.303,-1.155
'0:03.549',3.422,10.278,10.479,-5.013,-4.761,10.425,6.343,3.15,6.96,7.618,2.252,-1.218
'0:03.553',3.409,10.252,10.466,-4.994,-4.761,10.405,6.338,3.14,6.976,7.594,2.227,-1.24
'0:03.556',3.424,10.212,10.412,-4.982,-4.726,10.358,6.325,3.121,6.92,7.579,2.216,-1.242
'0:03.560',3.42,10.201,10.404,-4.974,-4.724,10.349,6.319,3.111,6.927,7.571,2.209,-1.233
'0:03.564',3.412,10.213,10.425,-4.976,-4.739,10.365,6.317,3.101,6.921,7.545,2.192,-1.264
'0:03.568',3.387,10.217,10.453,-4.965,-4.766,10.381,6.305,3.071,6.943,7.497,2.136,-1.328
'0:03.572',3.39,10.204,10.437,-4.961,-4.756,10.367,6.307,3.068,6.912,7.475,2.113,-1.345
'0:03.576',3.393,10.177,10.407,-4.948,-4.74,10.338,6.303,3.055,6.901,7.466,2.118,-1.331
'0:03.580',3.407,10.17,10.386,-4.952,-4.721,10.325,6.299,3.062,6.913,7.477,2.127,-1.31
'0:03.584',3.396,10.189,10.417,-4.956,-4.743,10.35,6.298,3.061,6.901,7.46,2.115,-1.326
'0:03.588',3.373,10.201,10.451,-4.95,-4.771,10.373,6.293,3.043,6.894,7.429,2.082,-1.362
'0:03.591',3.377,10.2,10.447,-4.952,-4.768,10.37,6.3,3.043,6.953,7.421,2.067,-1.376
'0:03.595',3.376,10.172,10.42,-4.938,-4.754,10.342,6.292,3.037,6.908,7.42,2.077,-1.359
'0:03.599',3.377,10.168,10.415,-4.936,-4.751,10.338,6.289,3.037,6.885,7.424,2.089,-1.331
'0:03.603',3.372,10.176,10.427,-4.938,-4.76,10.348,6.289,3.029,6.89,7.419,2.085,-1.342
'0:03.607',3.357,10.205,10.471,-4.944,-4.789,10.384,6.286,3.016,6.939,7.398,2.053,-1.378
'0:03.611',3.371,10.197,10.45,-4.947,-4.771,10.37,6.283,3.005,6.918,7.378,2.037,-1.392
'0:03.615',3.38,10.169,10.412,-4.939,-4.748,10.337,6.284,3.012,6.888,7.382,2.047,-1.378
'0:03.619',3.384,10.157,10.396,-4.934,-4.738,10.323,6.28,3.017,6.876,7.392,2.074,-1.346
'0:03.623',3.384,10.171,10.41,-4.941,-4.745,10.337,6.285,3.021,6.923,7.404,2.085,-1.337
'0:03.626',3.368,10.185,10.441,-4.94,-4.768,10.359,6.286,3.014,6.906,7.391,2.06,-1.364
'0:03.630',3.36,10.185,10.449,-4.937,-4.776,10.363,6.281,3.01,6.904,7.368,2.036,-1.393
'0:03.634',3.38,10.183,10.426,-4.945,-4.755,10.351,6.283,3.019,6.86,7.378,2.05,-1.381
'0:03.638',3.375,10.169,10.418,-4.936,-4.754,10.34,6.289,3.018,6.862,7.4,2.065,-1.353
'0:03.642',3.367,10.178,10.434,-4.936,-4.766,10.353,6.292,3.025,6.93,7.411,2.081,-1.336
'0:03.646',3.376,10.204,10.451,-4.953,-4.77,10.374,6.285,3.011,6.933,7.396,2.061,-1.367
'0:03.650',3.371,10.206,10.458,-4.952,-4.776,10.378,6.28,3.01,6.899,7.38,2.04,-1.388
'0:03.654',3.363,10.179,10.439,-4.935,-4.77,10.355,6.285,3.013,6.905,7.387,2.049,-1.379
'0:03.658',3.383,10.163,10.403,-4.937,-4.743,10.329,6.282,3.018,6.888,7.405,2.073,-1.351
'0:03.661',3.372,10.162,10.414,-4.931,-4.753,10.334,6.28,3.022,6.878,7.418,2.085,-1.341
'0:03.665',3.358,10.185,10.451,-4.936,-4.778,10.364,6.28,3.012,6.936,7.404,2.066,-1.37
'0:03.669',3.365,10.192,10.451,-4.942,-4.775,10.368,6.28,3.02,6.923,7.389,2.042,-1.395
'0:03.673',3.362,10.181,10.442,-4.935,-4.772,10.357,6.28,3.006,6.919,7.385,2.039,-1.389
'0:03.677',3.386,10.171,10.408,-4.942,-4.744,10.336,6.283,3.024,6.901,7.405,2.065,-1.354
'0:03.681',3.387,10.163,10.4,-4.939,-4.739,10.328,6.289,3.026,6.9,7.413,2.081,-1.337
'0:03.685',3.368,10.186,10.442,-4.94,-4.769,10.36,6.284,3.017,6.931,7.406,2.061,-1.358
'0:03.689',3.371,10.201,10.453,-4.949,-4.773,10.374,6.284,3.021,6.915,7.391,2.052,-1.379
'0:03.693',3.379,10.192,10.436,-4.949,-4.761,10.36,6.292,3.016,6.927,7.382,2.046,-1.393
'0:03.696',3.383,10.175,10.415,-4.942,-4.748,10.341,6.288,3.018,6.921,7.398,2.061,-1.36
'0:03.700',3.377,10.168,10.415,-4.936,-4.751,10.338,6.293,3.024,6.888,7.412,2.073,-1.344
'0:03.704',3.362,10.185,10.447,-4.938,-4.774,10.362,6.28,3.023,6.92,7.397,2.061,-1.36
'0:03.708',3.346,10.202,10.479,-4.938,-4.799,10.387,6.288,3.035,6.956,7.393,2.051,-1.378
'0:03.712',3.381,10.18,10.422,-4.944,-4.752,10.347,6.283,3.02,6.91,7.373,2.028,-1.397
'0:03.716',3.379,10.162,10.406,-4.935,-4.745,10.33,6.284,3.02,6.899,7.389,2.052,-1.372
'0:03.720',3.383,10.155,10.395,-4.933,-4.738,10.321,6.285,3.025,6.901,7.404,2.066,-1.354
'0:03.724',3.377,10.171,10.418,-4.938,-4.753,10.341,6.285,3.019,6.876,7.395,2.063,-1.364
'0:03.728',3.368,10.193,10.449,-4.944,-4.772,10.367,6.286,3.018,6.946,7.378,2.039,-1.394
'0:03.732',3.347,10.175,10.451,-4.924,-4.785,10.359,6.29,3.019,6.916,7.381,2.042,-1.385
'0:03.735',3.354,10.165,10.435,-4.923,-4.773,10.347,6.291,3.025,6.897,7.388,2.053,-1.361
'0:03.739',3.368,10.157,10.412,-4.926,-4.754,10.33,6.287,3.023,6.889,7.402,2.076,-1.334
'0:03.743',3.381,10.17,10.412,-4.939,-4.747,10.337,6.285,3.016,6.925,7.401,2.072,-1.34
'0:03.747',3.355,10.191,10.459,-4.937,-4.784,10.372,6.287,3.015,6.947,7.377,2.044,-1.38
'0:03.751',3.378,10.182,10.427,-4.943,-4.756,10.351,6.283,3.007,6.911,7.362,2.029,-1.391
'0:03.755',3.37,10.161,10.415,-4.929,-4.755,10.334,6.28,3.006,6.922,7.364,2.031,-1.379
'0:03.759',3.384,10.153,10.392,-4.932,-4.736,10.319,6.282,3.016,6.881,7.387,2.068,-1.349
'0:03.763',3.389,10.174,10.408,-4.945,-4.742,10.337,6.282,3.017,6.885,7.395,2.079,-1.345
'0:03.767',3.36,10.184,10.448,-4.936,-4.776,10.362,6.28,3.004,6.92,7.367,2.045,-1.387
'0:03.770',3.345,10.182,10.46,-4.927,-4.79,10.367,6.279,2.993,6.898,7.353,2.029,-1.401
'0:03.774',3.373,10.169,10.42,-4.935,-4.756,10.341,6.279,2.997,6.893,7.365,2.037,-1.383
'0:03.778',3.371,10.143,10.396,-4.92,-4.744,10.316,6.28,3.003,6.889,7.378,2.062,-1.355
'0:03.782',3.37,10.158,10.411,-4.927,-4.753,10.33,6.283,3.004,6.862,7.392,2.086,-1.332
'0:03.786',3.366,10.182,10.439,-4.938,-4.768,10.356,6.275,3.005,6.921,7.375,2.065,-1.356
'0:03.790',3.359,10.178,10.442,-4.932,-4.773,10.356,6.27,2.996,6.882,7.35,2.037,-1.382
'0:03.794',3.367,10.161,10.418,-4.928,-4.758,10.336,6.271,2.996,6.883,7.357,2.048,-1.372
'0:03.798',3.377,10.156,10.402,-4.93,-4.745,10.326,6.266,2.999,6.876,7.379,2.073,-1.338
'0:03.802',3.379,10.158,10.402,-4.932,-4.744,10.326,6.275,3.002,6.877,7.392,2.092,-1.323
'0:03.805',3.382,10.186,10.427,-4.948,-4.755,10.354,6.274,2.998,6.898,7.38,2.074,-1.341
'0:03.809',3.381,10.178,10.42,-4.943,-4.751,10.345,6.27,2.999,6.872,7.359,2.051,-1.371
'0:03.813',3.357,10.159,10.426,-4.922,-4.767,10.339,6.27,2.988,6.91,7.354,2.047,-1.374
'0:03.817',3.37,10.143,10.397,-4.92,-4.745,10.316,6.274,2.995,6.892,7.372,2.071,-1.348
'0:03.821',3.36,10.137,10.401,-4.913,-4.752,10.315,6.268,2.988,6.885,7.379,2.078,-1.331
'0:03.825',3.354,10.16,10.43,-4.92,-4.77,10.342,6.269,3.002,6.905,7.377,2.073,-1.345
'0:03.829',3.348,10.165,10.441,-4.92,-4.779,10.35,6.261,2.996,6.92,7.356,2.051,-1.379
'0:03.833',3.374,10.165,10.415,-4.933,-4.753,10.336,6.272,2.994,6.886,7.353,2.052,-1.372
'0:03.837',3.364,10.143,10.402,-4.917,-4.751,10.319,6.273,2.995,6.921,7.367,2.063,-1.346
'0:03.840',3.377,10.146,10.393,-4.925,-4.741,10.316,6.27,2.991,6.883,7.382,2.078,-1.333
'0:03.844',3.378,10.162,10.407,-4.934,-4.746,10.331,6.269,2.992,6.864,7.376,2.074,-1.342
'0:03.848',3.369,10.18,10.434,-4.938,-4.765,10.354,6.27,2.984,6.934,7.355,2.047,-1.37
'0:03.852',3.378,10.16,10.406,-4.933,-4.746,10.329,6.264,2.985,6.9,7.353,2.051,-1.373
'0:03.856',3.378,10.144,10.389,-4.925,-4.738,10.313,6.269,2.992,6.863,7.368,2.074,-1.348
'0:03.860',3.373,10.142,10.393,-4.921,-4.743,10.314,6.276,3.002,6.906,7.384,2.089,-1.319
'0:03.864',3.378,10.167,10.412,-4.937,-4.749,10.336,6.271,2.993,6.892,7.378,2.077,-1.338
'0:03.868',3.369,10.183,10.437,-4.939,-4.767,10.356,6.271,2.988,6.88,7.355,2.052,-1.376
'0:03.872',3.358,10.163,10.428,-4.924,-4.768,10.342,6.269,2.981,6.895,7.35,2.042,-1.379
'0:03.875',3.365,10.144,10.402,-4.918,-4.751,10.32,6.272,2.994,6.903,7.361,2.061,-1.354
'0:03.879',3.369,10.135,10.39,-4.915,-4.743,10.309,6.272,2.99,6.911,7.38,2.082,-1.324
'0:03.883',3.322,10.142,10.444,-4.895,-4.793,10.339,6.283,3.001,6.891,7.392,2.094,-1.324
'0:03.887',3.358,10.165,10.43,-4.925,-4.768,10.344,6.267,2.988,6.912,7.353,2.058,-1.362
'0:03.891',3.379,10.157,10.401,-4.932,-4.743,10.325,6.26,2.975,6.921,7.333,2.032,-1.383
'0:03.895',3.378,10.149,10.394,-4.927,-4.74,10.318,6.266,2.982,6.864,7.353,2.052,-1.358
'0:03.899',3.381,10.139,10.381,-4.924,-4.732,10.306,6.268,2.993,6.874,7.375,2.078,-1.337
'0:03.903',3.381,10.16,10.402,-4.935,-4.743,10.328,6.273,2.996,6.894,7.378,2.085,-1.33
'0:03.907',3.365,10.177,10.435,-4.935,-4.768,10.353,6.269,2.987,6.923,7.355,2.058,-1.361
'0:03.911',3.358,10.185,10.451,-4.936,-4.778,10.364,6.274,2.99,6.926,7.349,2.047,-1.374
'0:03.914',3.362,10.183,10.445,-4.937,-4.773,10.36,6.285,2.999,6.929,7.372,2.064,-1.365
'0:03.918',3.378,10.187,10.433,-4.946,-4.76,10.356,6.289,3.005,6.916,7.393,2.094,-1.325
'0:03.922',3.37,10.196,10.45,-4.946,-4.772,10.369,6.282,3.002,6.915,7.402,2.099,-1.318
'0:03.926',3.366,10.226,10.483,-4.96,-4.791,10.401,6.285,3,6.952,7.39,2.081,-1.338
'0:03.930',3.368,10.231,10.486,-4.963,-4.792,10.404,6.293,3.012,6.948,7.373,2.067,-1.357
'0:03.934',3.359,10.218,10.482,-4.952,-4.793,10.397,6.296,3.012,6.938,7.386,2.082,-1.333
'0:03.938',3.38,10.225,10.468,-4.966,-4.776,10.393,6.3,3.02,6.936,7.411,2.107,-1.299
'0:03.942',3.378,10.243,10.489,-4.974,-4.788,10.412,6.287,3.005,6.964,7.433,2.131,-1.283
'0:03.946',3.374,10.268,10.518,-4.985,-4.804,10.439,6.259,2.992,6.994,7.416,2.113,-1.307
'0:03.949',3.376,10.272,10.52,-4.988,-4.804,10.442,6.242,2.975,6.973,7.396,2.095,-1.326
'0:03.953',3.395,10.26,10.489,-4.991,-4.779,10.421,6.24,2.974,6.996,7.395,2.094,-1.321
'0:03.957',3.384,10.232,10.471,-4.971,-4.775,10.398,6.247,2.981,6.953,7.424,2.12,-1.283
'0:03.961',3.399,10.25,10.475,-4.988,-4.77,10.408,6.26,3.004,6.944,7.46,2.167,-1.246
'0:03.965',3.397,10.266,10.493,-4.995,-4.78,10.426,6.26,3.001,6.965,7.455,2.161,-1.257
'0:03.969',3.406,10.257,10.475,-4.995,-4.767,10.412,6.266,3.007,6.961,7.425,2.129,-1.291
'0:03.973',3.404,10.215,10.434,-4.973,-4.747,10.371,6.256,2.997,6.939,7.414,2.117,-1.299
'0:03.977',3.411,10.183,10.395,-4.961,-4.724,10.335,6.246,2.986,6.925,7.42,2.137,-1.265
'0:03.981',3.412,10.182,10.393,-4.961,-4.722,10.333,6.246,2.983,6.905,7.429,2.151,-1.245
'0:03.984',3.398,10.186,10.412,-4.956,-4.74,10.346,6.255,2.985,6.934,7.414,2.127,-1.278
'0:03.988',3.378,10.192,10.438,-4.948,-4.763,10.361,6.257,2.985,6.951,7.4,2.102,-1.309
'0:03.992',3.371,10.177,10.429,-4.938,-4.762,10.35,6.262,2.997,6.936,7.397,2.102,-1.32
'0:03.996',3.373,10.155,10.405,-4.927,-4.748,10.327,6.26,2.991,6.874,7.396,2.102,-1.306
'0:04.000',3.375,10.139,10.388,-4.92,-4.739,10.31,6.258,2.992,6.897,7.401,2.114,-1.294
'0:04.004',3.358,10.148,10.413,-4.916,-4.76,10.327,6.256,2.98,6.916,7.378,2.087,-1.314
'0:04.008',3.359,10.161,10.426,-4.924,-4.766,10.34,6.25,2.971,6.876,7.346,2.058,-1.36
'0:04.012',3.355,10.16,10.428,-4.921,-4.768,10.341,6.255,2.977,6.891,7.346,2.051,-1.372
'0:04.016',3.377,10.136,10.383,-4.92,-4.736,10.306,6.254,2.976,6.861,7.355,2.064,-1.346
'0:04.019',3.377,10.121,10.368,-4.913,-4.728,10.291,6.254,2.982,6.855,7.376,2.091,-1.322
'0:04.023',3.373,10.148,10.399,-4.924,-4.745,10.32,6.262,2.986,6.842,7.385,2.095,-1.316
'0:04.027',3.357,10.166,10.432,-4.925,-4.769,10.346,6.261,2.976,6.9,7.36,2.061,-1.351
'0:04.031',3.383,10.159,10.4,-4.935,-4.741,10.326,6.264,2.983,6.898,7.355,2.058,-1.366
'0:04.035',3.379,10.134,10.378,-4.92,-4.731,10.302,6.263,2.985,6.879,7.361,2.064,-1.356
'0:04.039',3.364,10.112,10.372,-4.902,-4.736,10.288,6.261,2.985,6.872,7.378,2.081,-1.325
'0:04.043',3.359,10.132,10.396,-4.909,-4.75,10.31,6.262,2.986,6.897,7.376,2.086,-1.325
'0:04.047',3.357,10.154,10.42,-4.919,-4.764,10.333,6.259,2.982,6.869,7.356,2.061,-1.36
'0:04.051',3.363,10.148,10.408,-4.919,-4.755,10.325,6.253,2.983,6.883,7.348,2.055,-1.366
'0:04.054',3.36,10.134,10.398,-4.911,-4.751,10.312,6.262,2.984,6.879,7.357,2.068,-1.352
'0:04.058',3.385,10.129,10.367,-4.92,-4.723,10.294,6.266,2.992,6.847,7.376,2.089,-1.313
'0:04.062',3.383,10.132,10.372,-4.921,-4.726,10.298,6.265,2.986,6.841,7.385,2.095,-1.311
'0:04.066',3.363,10.156,10.416,-4.923,-4.759,10.332,6.255,2.976,6.912,7.364,2.071,-1.343
'0:04.070',3.377,10.164,10.411,-4.934,-4.749,10.334,6.269,2.999,6.907,7.356,2.056,-1.363
'0:04.074',3.38,10.143,10.386,-4.925,-4.735,10.311,6.267,2.999,6.861,7.358,2.064,-1.354
'0:04.078',3.387,10.125,10.361,-4.919,-4.72,10.289,6.271,3.003,6.862,7.381,2.089,-1.328
'0:04.082',3.346,10.12,10.398,-4.896,-4.758,10.305,6.296,3.026,6.9,7.389,2.08,-1.333
'0:04.086',3.342,10.135,10.417,-4.902,-4.769,10.323,6.33,3.076,6.86,7.337,2.006,-1.422
'0:04.089',3.385,10.108,10.346,-4.91,-4.713,10.273,6.34,3.11,6.862,7.347,1.985,-1.474
'0:04.093',3.436,10.068,10.256,-4.915,-4.642,10.208,6.373,3.195,6.817,7.433,2.037,-1.459
'0:04.097',3.465,10.037,10.195,-4.915,-4.598,10.162,6.405,3.272,6.759,7.646,2.205,-1.37
'0:04.101',3.538,10.09,10.176,-4.978,-4.551,10.18,6.359,3.271,6.796,8.05,2.551,-1.142
'0:04.105',3.595,10.166,10.195,-5.044,-4.532,10.227,6.238,3.165,6.799,8.538,3.022,-0.807
'0:04.109',3.63,10.279,10.272,-5.118,-4.553,10.322,6.069,2.952,6.884,8.992,3.503,-0.447
'0:04.113',3.658,10.393,10.358,-5.189,-4.582,10.422,5.892,2.71,6.957,9.478,4.056,-0.014
'0:04.117',3.594,10.464,10.494,-5.192,-4.682,10.525,5.777,2.503,7.037,9.656,4.237,0.172
'0:04.121',3.499,10.525,10.65,-5.176,-4.808,10.634,5.678,2.314,7.062,9.527,4.16,0.236
'0:04.125',3.434,10.484,10.673,-5.123,-4.852,10.625,5.549,2.068,7.097,8.429,3.48,-0.025
'0:04.128',3.272,10.43,10.782,-5.014,-4.988,10.652,5.556,2.004,7.118,6.989,2.281,-0.684
'0:04.132',3.223,10.336,10.737,-4.943,-4.989,10.583,5.609,2.093,7.02,6.827,1.994,-0.954
'0:04.136',3.258,10.326,10.691,-4.956,-4.948,10.554,5.688,2.226,7.062,6.991,2.085,-0.928
'0:04.140',3.269,10.291,10.646,-4.943,-4.92,10.515,5.787,2.366,7.018,7.089,2.133,-0.924
'0:04.144',3.27,10.306,10.66,-4.952,-4.927,10.529,5.897,2.502,7.053,7.134,2.124,-0.988
'0:04.148',3.283,10.342,10.682,-4.976,-4.932,10.558,5.986,2.616,7.061,7.171,2.101,-1.057
'0:04.152',3.316,10.346,10.653,-4.994,-4.901,10.546,6.048,2.696,7.062,7.235,2.123,-1.057
'0:04.156',3.321,10.339,10.642,-4.993,-4.892,10.537,6.071,2.714,7.045,7.278,2.157,-1.034
'0:04.160',3.331,10.35,10.642,-5.004,-4.888,10.542,6.091,2.738,7.044,7.313,2.177,-1.026
'0:04.163',3.313,10.346,10.656,-4.993,-4.904,10.548,6.129,2.768,7.046,7.313,2.143,-1.084
'0:04.167',3.291,10.319,10.651,-4.968,-4.913,10.531,6.147,2.795,7.05,7.282,2.086,-1.173
'0:04.171',3.305,10.281,10.6,-4.957,-4.88,10.487,6.162,2.814,7.015,7.279,2.061,-1.207
'0:04.175',3.312,10.244,10.555,-4.941,-4.854,10.446,6.173,2.834,6.998,7.284,2.069,-1.203
'0:04.179',3.33,10.225,10.518,-4.941,-4.826,10.418,6.185,2.85,6.923,7.31,2.098,-1.181
'0:04.183',3.324,10.24,10.54,-4.945,-4.841,10.436,6.188,2.846,6.989,7.313,2.094,-1.19
'0:04.187',3.308,10.26,10.575,-4.948,-4.866,10.464,6.184,2.836,6.963,7.291,2.07,-1.223
'0:04.191',3.315,10.256,10.565,-4.949,-4.857,10.457,6.182,2.842,6.993,7.281,2.052,-1.238
'0:04.195',3.334,10.245,10.534,-4.953,-4.832,10.436,6.186,2.856,6.994,7.292,2.068,-1.218
'0:04.198',3.348,10.234,10.51,-4.955,-4.814,10.419,6.189,2.862,6.9,7.315,2.098,-1.183
'0:04.202',3.328,10.248,10.544,-4.951,-4.841,10.442,6.188,2.857,6.956,7.322,2.101,-1.168
'0:04.206',3.33,10.279,10.572,-4.968,-4.853,10.472,6.193,2.861,6.974,7.309,2.089,-1.194
'0:04.210',3.331,10.269,10.561,-4.963,-4.847,10.461,6.189,2.852,6.971,7.294,2.08,-1.218
'0:04.214',3.338,10.264,10.549,-4.964,-4.838,10.453,6.194,2.856,6.978,7.299,2.074,-1.203
'0:04.218',3.344,10.243,10.523,-4.957,-4.821,10.429,6.195,2.861,6.955,7.322,2.107,-1.177
'0:04.222',3.327,10.255,10.551,-4.954,-4.844,10.45,6.197,2.862,6.985,7.335,2.119,-1.154
'0:04.226',3.32,10.28,10.583,-4.963,-4.864,10.477,6.192,2.861,6.989,7.315,2.101,-1.182
'0:04.230',3.325,10.286,10.585,-4.969,-4.863,10.482,6.196,2.854,6.98,7.303,2.079,-1.202
'0:04.233',3.328,10.272,10.568,-4.963,-4.852,10.466,6.191,2.852,6.988,7.305,2.09,-1.187
'0:04.237',3.34,10.263,10.547,-4.965,-4.836,10.451,6.198,2.866,6.955,7.33,2.122,-1.158
'0:04.241',3.322,10.266,10.568,-4.958,-4.855,10.463,6.199,2.857,7.01,7.342,2.139,-1.133
'0:04.245',3.309,10.297,10.611,-4.966,-4.883,10.5,6.194,2.861,6.977,7.34,2.126,-1.143
'0:04.249',3.346,10.309,10.587,-4.991,-4.853,10.495,6.188,2.85,6.986,7.319,2.105,-1.176
'0:04.253',3.336,10.292,10.579,-4.978,-4.854,10.482,6.184,2.849,6.997,7.311,2.108,-1.164
'0:04.257',3.329,10.282,10.576,-4.969,-4.856,10.476,6.191,2.857,6.973,7.33,2.129,-1.13
'0:04.261',3.337,10.28,10.567,-4.972,-4.847,10.47,6.198,2.859,6.953,7.353,2.156,-1.101
'0:04.265',3.32,10.307,10.611,-4.977,-4.878,10.505,6.201,2.86,7.018,7.354,2.156,-1.112
'0:04.268',3.313,10.324,10.634,-4.982,-4.892,10.525,6.192,2.859,7.001,7.337,2.137,-1.135
'0:04.272',3.316,10.311,10.619,-4.977,-4.884,10.511,6.192,2.862,6.976,7.337,2.139,-1.127
'0:04.276',3.335,10.295,10.583,-4.979,-4.856,10.485,6.194,2.867,6.996,7.355,2.167,-1.092
'0:04.280',3.34,10.293,10.576,-4.98,-4.85,10.481,6.192,2.869,6.983,7.377,2.186,-1.062
'0:04.284',3.333,10.322,10.612,-4.991,-4.871,10.513,6.198,2.876,7.019,7.379,2.192,-1.062
'0:04.288',3.328,10.348,10.644,-5.001,-4.89,10.542,6.196,2.866,7.01,7.359,2.169,-1.091
'0:04.292',3.325,10.348,10.646,-5,-4.893,10.544,6.216,2.893,7.035,7.37,2.178,-1.078
'0:04.296',3.339,10.325,10.609,-4.995,-4.867,10.513,6.207,2.885,6.995,7.388,2.2,-1.054
'0:04.300',3.336,10.329,10.616,-4.996,-4.872,10.519,6.207,2.901,6.971,7.413,2.235,-1.012
'0:04.304',3.345,10.351,10.629,-5.012,-4.874,10.536,6.21,2.914,6.975,7.423,2.242,-1.002
'0:04.307',3.322,10.367,10.669,-5.008,-4.906,10.564,6.212,2.906,7.016,7.403,2.208,-1.039
'0:04.311',3.339,10.361,10.646,-5.013,-4.886,10.549,6.209,2.915,7.018,7.402,2.211,-1.04
'0:04.315',3.348,10.348,10.623,-5.012,-4.87,10.532,6.217,2.924,7.04,7.42,2.23,-1.02
'0:04.319',3.352,10.352,10.623,-5.015,-4.868,10.534,6.223,2.944,7.05,7.451,2.263,-0.981
'0:04.323',3.345,10.373,10.651,-5.022,-4.886,10.558,6.229,2.956,7.025,7.472,2.281,-0.966
'0:04.327',3.345,10.395,10.673,-5.034,-4.896,10.58,6.235,2.974,7.033,7.467,2.279,-0.99
'0:04.331',3.354,10.397,10.666,-5.039,-4.888,10.577,6.237,2.974,7.069,7.463,2.267,-1.005
'0:04.335',3.368,10.378,10.633,-5.037,-4.865,10.551,6.247,2.996,6.991,7.488,2.292,-0.981
'0:04.339',3.358,10.367,10.632,-5.026,-4.869,10.546,6.263,3.02,7.029,7.525,2.328,-0.939
'0:04.342',3.356,10.384,10.651,-5.034,-4.88,10.564,6.278,3.033,7.059,7.552,2.349,-0.927
'0:04.346',3.361,10.417,10.679,-5.053,-4.891,10.595,6.281,3.05,7.098,7.55,2.34,-0.943
'0:04.350',3.372,10.427,10.678,-5.062,-4.886,10.598,6.282,3.064,7.12,7.552,2.333,-0.961
'0:04.354',3.37,10.408,10.662,-5.053,-4.878,10.581,6.298,3.083,7.078,7.57,2.347,-0.947
'0:04.358',3.391,10.391,10.623,-5.055,-4.848,10.553,6.307,3.106,7.078,7.602,2.382,-0.924
'0:04.362',3.378,10.391,10.636,-5.048,-4.861,10.56,6.317,3.126,7.06,7.625,2.398,-0.91
'0:04.366',3.385,10.422,10.66,-5.067,-4.869,10.587,6.324,3.139,7.064,7.625,2.383,-0.94
'0:04.370',3.4,10.423,10.646,-5.075,-4.856,10.581,6.326,3.145,7.047,7.617,2.362,-0.965
'0:04.374',3.408,10.407,10.622,-5.071,-4.84,10.561,6.329,3.168,7.07,7.628,2.375,-0.968
'0:04.377',3.409,10.386,10.6,-5.061,-4.828,10.54,6.346,3.19,7.052,7.665,2.403,-0.94
'0:04.381',3.403,10.386,10.606,-5.059,-4.834,10.543,6.354,3.205,7.032,7.691,2.421,-0.931
'0:04.385',3.402,10.394,10.616,-5.061,-4.84,10.551,6.354,3.205,7.055,7.676,2.395,-0.974
'0:04.389',3.37,10.386,10.64,-5.041,-4.867,10.559,6.364,3.21,7.054,7.667,2.371,-1.009
'0:04.393',3.4,10.365,10.589,-5.046,-4.827,10.524,6.355,3.207,7.041,7.667,2.367,-1.031
'0:04.397',3.451,10.344,10.517,-5.061,-4.766,10.476,6.352,3.209,6.999,7.682,2.378,-1.018
'0:04.401',3.443,10.329,10.51,-5.05,-4.766,10.466,6.356,3.213,7,7.707,2.392,-1.017
'0:04.405',3.43,10.332,10.525,-5.045,-4.78,10.476,6.35,3.198,7.06,7.695,2.365,-1.052
'0:04.409',3.434,10.332,10.522,-5.047,-4.776,10.474,6.344,3.189,6.974,7.669,2.333,-1.1
'0:04.412',3.435,10.305,10.493,-5.034,-4.761,10.445,6.342,3.177,6.979,7.663,2.321,-1.123
'0:04.416',3.454,10.273,10.442,-5.027,-4.726,10.403,6.338,3.173,6.926,7.666,2.324,-1.12
'0:04.420',3.445,10.253,10.431,-5.012,-4.725,10.388,6.329,3.157,6.933,7.658,2.314,-1.124
'0:04.424',3.433,10.255,10.445,-5.008,-4.738,10.396,6.319,3.154,6.916,7.635,2.283,-1.164
'0:04.428',3.415,10.257,10.466,-5,-4.758,10.408,6.313,3.134,6.928,7.595,2.236,-1.226
'0:04.432',3.423,10.238,10.439,-4.994,-4.741,10.385,6.312,3.123,6.934,7.557,2.204,-1.253
'0:04.436',3.417,10.213,10.42,-4.979,-4.734,10.363,6.31,3.109,6.898,7.553,2.195,-1.247
'0:04.440',3.418,10.202,10.407,-4.973,-4.727,10.351,6.308,3.102,6.901,7.548,2.202,-1.238
'0:04.444',3.427,10.212,10.408,-4.984,-4.722,10.356,6.303,3.084,6.916,7.519,2.172,-1.268
'0:04.447',3.409,10.217,10.431,-4.977,-4.744,10.371,6.291,3.062,6.91,7.469,2.118,-1.328
'0:04.451',3.4,10.203,10.427,-4.964,-4.745,10.361,6.284,3.05,6.89,7.444,2.096,-1.341
'0:04.455',3.399,10.178,10.402,-4.952,-4.734,10.336,6.285,3.044,6.903,7.431,2.091,-1.337
'0:04.459',3.396,10.167,10.395,-4.945,-4.732,10.328,6.283,3.043,6.905,7.447,2.105,-1.314
'0:04.463',3.403,10.187,10.407,-4.959,-4.734,10.344,6.28,3.037,6.942,7.437,2.099,-1.319
'0:04.467',3.388,10.198,10.433,-4.957,-4.755,10.362,6.275,3.021,6.905,7.399,2.068,-1.356
'0:04.471',3.372,10.198,10.45,-4.948,-4.771,10.37,6.28,3.018,6.899,7.384,2.05,-1.377
'0:04.475',3.385,10.176,10.414,-4.944,-4.746,10.341,6.274,3.015,6.922,7.385,2.056,-1.365
'0:04.479',3.406,10.165,10.382,-4.949,-4.72,10.32,6.271,3.003,6.883,7.388,2.067,-1.34
'0:04.482',3.382,10.162,10.403,-4.936,-4.743,10.329,6.27,3.007,6.913,7.391,2.067,-1.344
'0:04.486',3.372,10.197,10.449,-4.948,-4.77,10.369,6.271,2.996,6.911,7.37,2.043,-1.363
'0:04.490',3.372,10.186,10.438,-4.942,-4.766,10.358,6.261,2.993,6.925,7.355,2.023,-1.388
'0:04.494',3.382,10.171,10.412,-4.94,-4.747,10.338,6.263,2.997,6.895,7.354,2.031,-1.381
'0:04.498',3.385,10.161,10.4,-4.937,-4.74,10.327,6.274,3.004,6.902,7.376,2.05,-1.349
'0:04.502',3.388,10.176,10.411,-4.945,-4.744,10.34,6.274,3.007,6.917,7.382,2.065,-1.336
'0:04.506',3.37,10.196,10.45,-4.946,-4.772,10.369,6.27,2.995,6.905,7.371,2.047,-1.36
'0:04.510',3.386,10.194,10.431,-4.954,-4.755,10.359,6.263,2.995,6.893,7.35,2.029,-1.38
'0:04.514',3.39,10.184,10.418,-4.951,-4.746,10.348,6.268,2.997,6.888,7.355,2.03,-1.376
'0:04.518',3.393,10.168,10.399,-4.944,-4.735,10.329,6.27,3.003,6.88,7.374,2.056,-1.347
'0:04.521',3.391,10.167,10.4,-4.942,-4.737,10.329,6.269,3.006,6.893,7.389,2.074,-1.333
'0:04.525',3.358,10.188,10.453,-4.937,-4.78,10.367,6.27,3.009,6.916,7.384,2.061,-1.356
'0:04.529',3.373,10.194,10.445,-4.947,-4.768,10.366,6.266,3.002,6.924,7.362,2.034,-1.387
'0:04.533',3.406,10.181,10.398,-4.957,-4.728,10.335,6.262,2.988,6.911,7.35,2.024,-1.395
'0:04.537',3.398,10.171,10.397,-4.948,-4.732,10.33,6.273,3,6.888,7.382,2.057,-1.345
'0:04.541',3.379,10.159,10.402,-4.933,-4.744,10.327,6.277,3.006,6.914,7.388,2.069,-1.338
'0:04.545',3.373,10.183,10.433,-4.941,-4.763,10.354,6.267,2.999,6.931,7.38,2.055,-1.354
'0:04.549',3.361,10.197,10.459,-4.942,-4.781,10.375,6.27,3.012,6.943,7.364,2.037,-1.378
'0:04.553',3.38,10.184,10.427,-4.946,-4.756,10.353,6.271,3.011,6.932,7.365,2.033,-1.38
'0:04.556',3.383,10.164,10.404,-4.938,-4.743,10.33,6.274,3.011,6.918,7.384,2.052,-1.358
'0:04.560',3.387,10.171,10.407,-4.942,-4.743,10.335,6.278,3.015,6.917,7.396,2.068,-1.338
'0:04.564',3.387,10.196,10.432,-4.955,-4.755,10.36,6.278,3.018,6.908,7.391,2.07,-1.344
'0:04.568',3.393,10.211,10.442,-4.965,-4.757,10.373,6.274,3.01,6.934,7.371,2.038,-1.385
'0:04.572',3.381,10.194,10.436,-4.951,-4.76,10.361,6.275,3.007,6.925,7.36,2.026,-1.388
'0:04.576',3.379,10.173,10.417,-4.939,-4.751,10.341,6.274,3.01,6.901,7.373,2.046,-1.37
'0:04.580',3.397,10.163,10.39,-4.943,-4.729,10.323,6.273,3.015,6.89,7.391,2.063,-1.345
'0:04.584',3.371,10.171,10.424,-4.935,-4.759,10.344,6.272,3.01,6.895,7.383,2.057,-1.353
'0:04.588',3.353,10.194,10.465,-4.937,-4.789,10.376,6.28,3.003,6.921,7.37,2.037,-1.378
'0:04.591',3.377,10.19,10.437,-4.947,-4.763,10.36,6.27,3.001,6.912,7.358,2.025,-1.393
'0:04.595',3.374,10.165,10.415,-4.933,-4.753,10.336,6.275,3.005,6.926,7.363,2.04,-1.375
'0:04.599',3.379,10.16,10.404,-4.934,-4.744,10.329,6.28,3.01,6.892,7.387,2.067,-1.338
'0:04.603',3.395,10.183,10.412,-4.953,-4.741,10.344,6.276,3.009,6.915,7.39,2.067,-1.347
'0:04.607',3.394,10.214,10.444,-4.967,-4.757,10.376,6.276,3.002,6.949,7.371,2.052,-1.37
'0:04.611',3.4,10.204,10.427,-4.965,-4.746,10.362,6.278,3.003,6.925,7.353,2.032,-1.383
'0:04.615',3.391,10.171,10.403,-4.944,-4.739,10.333,6.266,2.997,6.937,7.357,2.036,-1.367
'0:04.619',3.394,10.162,10.392,-4.941,-4.731,10.324,6.269,3.007,6.93,7.375,2.062,-1.34
'0:04.623',3.381,10.167,10.409,-4.938,-4.746,10.334,6.267,2.995,6.938,7.378,2.059,-1.339
'0:04.626',3.354,10.19,10.46,-4.936,-4.786,10.372,6.269,2.993,6.912,7.356,2.046,-1.367
'0:04.630',3.36,10.183,10.447,-4.936,-4.775,10.361,6.272,2.989,6.928,7.347,2.034,-1.387
'0:04.634',3.367,10.165,10.422,-4.93,-4.76,10.34,6.264,2.984,6.896,7.343,2.032,-1.38
'0:04.638',3.365,10.152,10.41,-4.922,-4.755,10.328,6.27,2.994,6.936,7.369,2.056,-1.345
'0:04.642',3.394,10.166,10.396,-4.943,-4.733,10.328,6.267,2.991,6.885,7.365,2.062,-1.342
'0:04.646',3.379,10.194,10.438,-4.95,-4.762,10.362,6.264,2.974,6.917,7.348,2.041,-1.366
'0:04.650',3.386,10.196,10.433,-4.955,-4.756,10.361,6.262,2.98,6.89,7.335,2.035,-1.385
'0:04.654',3.39,10.18,10.413,-4.948,-4.744,10.343,6.264,2.982,6.918,7.337,2.035,-1.379
'0:04.658',3.403,10.166,10.386,-4.948,-4.723,10.323,6.256,2.99,6.883,7.354,2.053,-1.346
'0:04.661',3.377,10.174,10.421,-4.939,-4.754,10.344,6.268,3.006,6.863,7.378,2.083,-1.321
'0:04.665',3.376,10.183,10.431,-4.943,-4.76,10.354,6.26,2.988,6.933,7.354,2.06,-1.353
'0:04.669',3.391,10.185,10.418,-4.952,-4.745,10.348,6.253,2.968,6.89,7.325,2.028,-1.394
'0:04.673',3.367,10.164,10.421,-4.929,-4.759,10.339,6.256,2.976,6.901,7.333,2.035,-1.38
'0:04.677',3.376,10.15,10.398,-4.926,-4.744,10.32,6.262,2.98,6.902,7.351,2.061,-1.347
'0:04.681',3.382,10.154,10.395,-4.932,-4.739,10.321,6.266,2.986,6.873,7.365,2.073,-1.328
'0:04.685',3.372,10.177,10.428,-4.938,-4.761,10.349,6.258,2.977,6.896,7.354,2.058,-1.352
'0:04.689',3.376,10.193,10.441,-4.948,-4.765,10.363,6.263,2.978,6.932,7.336,2.039,-1.378
'0:04.693',3.392,10.183,10.415,-4.951,-4.744,10.346,6.263,2.977,6.91,7.33,2.039,-1.378
'0:04.696',3.409,10.165,10.379,-4.951,-4.718,10.319,6.258,2.981,6.87,7.352,2.057,-1.352
'0:04.700',3.39,10.157,10.39,-4.937,-4.732,10.32,6.264,2.986,6.871,7.358,2.073,-1.324
'0:04.704',3.382,10.18,10.421,-4.944,-4.751,10.347,6.257,2.98,6.903,7.36,2.072,-1.332
'0:04.708',3.374,10.193,10.443,-4.947,-4.767,10.364,6.252,2.969,6.923,7.333,2.037,-1.371
'0:04.712',3.378,10.175,10.42,-4.94,-4.753,10.344,6.25,2.965,6.905,7.328,2.031,-1.38
'0:04.716',3.385,10.156,10.394,-4.934,-4.737,10.321,6.255,2.97,6.896,7.342,2.052,-1.354
'0:04.720',3.367,10.141,10.398,-4.917,-4.747,10.316,6.257,2.975,6.895,7.354,2.072,-1.33
'0:04.724',3.373,10.168,10.419,-4.934,-4.755,10.34,6.264,2.972,6.881,7.359,2.067,-1.332
'0:04.728',3.367,10.186,10.443,-4.94,-4.77,10.361,6.263,2.972,6.917,7.336,2.04,-1.369
'0:04.732',3.378,10.179,10.425,-4.941,-4.756,10.348,6.258,2.968,6.906,7.321,2.027,-1.383
'0:04.735',3.383,10.157,10.397,-4.934,-4.739,10.323,6.256,2.974,6.883,7.334,2.046,-1.364
'0:04.739',3.392,10.159,10.391,-4.939,-4.732,10.322,6.26,2.982,6.877,7.355,2.068,-1.334
'0:04.743',3.39,10.171,10.404,-4.944,-4.74,10.334,6.257,2.979,6.906,7.356,2.07,-1.333
'0:04.747',3.368,10.179,10.434,-4.937,-4.766,10.353,6.257,2.977,6.92,7.339,2.052,-1.367
'0:04.751',3.381,10.182,10.424,-4.945,-4.753,10.349,6.254,2.963,6.916,7.321,2.025,-1.387
'0:04.755',3.398,10.161,10.387,-4.943,-4.727,10.321,6.257,2.968,6.875,7.329,2.041,-1.372
'0:04.759',3.399,10.152,10.377,-4.939,-4.721,10.31,6.256,2.976,6.89,7.352,2.064,-1.336
'0:04.763',3.376,10.16,10.408,-4.932,-4.748,10.33,6.267,2.978,6.862,7.361,2.072,-1.337
'0:04.767',3.359,10.183,10.447,-4.935,-4.776,10.361,6.263,2.972,6.913,7.343,2.051,-1.361
'0:04.770',3.369,10.182,10.436,-4.939,-4.766,10.355,6.259,2.963,6.901,7.324,2.03,-1.385
'0:04.774',3.374,10.152,10.402,-4.926,-4.746,10.323,6.252,2.965,6.915,7.324,2.035,-1.379
'0:04.778',3.372,10.133,10.384,-4.915,-4.739,10.305,6.258,2.983,6.871,7.349,2.061,-1.347
'0:04.782',3.374,10.151,10.401,-4.926,-4.745,10.322,6.259,2.978,6.902,7.359,2.07,-1.337
'0:04.786',3.371,10.179,10.431,-4.939,-4.763,10.352,6.253,2.967,6.901,7.339,2.042,-1.368
'0:04.790',3.375,10.175,10.424,-4.939,-4.757,10.346,6.257,2.97,6.905,7.321,2.028,-1.387
'0:04.794',3.375,10.163,10.412,-4.933,-4.751,10.334,6.262,2.975,6.899,7.332,2.037,-1.374
'0:04.798',3.397,10.151,10.378,-4.938,-4.722,10.31,6.257,2.976,6.894,7.348,2.053,-1.352
'0:04.802',3.369,10.161,10.416,-4.929,-4.756,10.335,6.271,2.988,6.897,7.372,2.076,-1.322
'0:04.805',3.392,10.18,10.411,-4.949,-4.742,10.342,6.26,2.974,6.918,7.347,2.053,-1.354
'0:04.809',3.401,10.181,10.403,-4.954,-4.734,10.338,6.253,2.963,6.914,7.324,2.024,-1.389
'0:04.813',3.378,10.166,10.411,-4.936,-4.748,10.335,6.258,2.965,6.887,7.326,2.035,-1.381
'0:04.817',3.386,10.174,10.411,-4.943,-4.744,10.339,6.276,2.99,6.912,7.359,2.072,-1.333
'0:04.821',3.385,10.202,10.44,-4.957,-4.76,10.367,6.277,2.992,6.906,7.38,2.094,-1.313
'0:04.825',3.389,10.235,10.47,-4.976,-4.772,10.399,6.278,2.988,6.947,7.372,2.081,-1.329
'0:04.829',3.382,10.254,10.495,-4.982,-4.789,10.421,6.275,2.984,6.97,7.36,2.062,-1.357
'0:04.833',3.394,10.237,10.467,-4.979,-4.768,10.399,6.284,2.987,6.941,7.355,2.063,-1.353
'0:04.837',3.372,10.219,10.471,-4.959,-4.782,10.391,6.296,3.009,6.963,7.377,2.089,-1.322
'0:04.840',3.392,10.226,10.457,-4.972,-4.765,10.388,6.289,2.999,6.955,7.393,2.103,-1.304
'0:04.844',3.395,10.26,10.489,-4.991,-4.779,10.421,6.272,2.991,6.992,7.397,2.106,-1.308
'0:04.848',3.392,10.286,10.518,-5.003,-4.795,10.449,6.258,2.979,6.983,7.381,2.083,-1.335
'0:04.852',3.393,10.283,10.514,-5.002,-4.793,10.445,6.242,2.966,6.976,7.379,2.086,-1.335
'0:04.856',3.38,10.255,10.498,-4.981,-4.791,10.423,6.239,2.958,6.964,7.386,2.1,-1.31
'0:04.860',3.383,10.232,10.473,-4.971,-4.777,10.399,6.241,2.955,6.958,7.403,2.119,-1.28
'0:04.864',3.384,10.27,10.509,-4.99,-4.794,10.436,6.245,2.96,6.972,7.407,2.126,-1.273
'0:04.868',3.394,10.296,10.525,-5.009,-4.798,10.457,6.248,2.967,7.007,7.407,2.123,-1.289
'0:04.872',3.402,10.266,10.487,-4.998,-4.774,10.423,6.245,2.97,7.013,7.405,2.11,-1.303
'0:04.875',3.432,10.239,10.43,-4.999,-4.731,10.381,6.248,2.984,6.897,7.402,2.129,-1.287
'0:04.879',3.425,10.21,10.409,-4.981,-4.724,10.356,6.243,2.977,6.918,7.412,2.139,-1.26
'0:04.883',3.413,10.214,10.425,-4.977,-4.738,10.366,6.241,2.973,6.939,7.41,2.14,-1.261
'0:04.887',3.396,10.223,10.451,-4.973,-4.76,10.383,6.243,2.962,6.945,7.378,2.105,-1.31
'0:04.891',3.393,10.207,10.438,-4.963,-4.755,10.369,6.246,2.966,6.941,7.359,2.084,-1.331
'0:04.895',3.406,10.191,10.408,-4.963,-4.733,10.346,6.25,2.972,6.889,7.374,2.097,-1.315
'0:04.899',3.396,10.174,10.402,-4.948,-4.735,10.334,6.251,2.987,6.898,7.381,2.11,-1.296
'0:04.903',3.391,10.183,10.416,-4.951,-4.744,10.346,6.247,2.97,6.902,7.374,2.092,-1.315
'0:04.907',3.36,10.193,10.456,-4.94,-4.78,10.371,6.25,2.962,6.922,7.349,2.068,-1.344
'0:04.911',3.365,10.184,10.443,-4.939,-4.771,10.36,6.243,2.952,6.929,7.325,2.041,-1.371
'0:04.914',3.366,10.159,10.417,-4.926,-4.758,10.334,6.249,2.964,6.896,7.329,2.053,-1.365
'0:04.918',3.378,10.141,10.386,-4.923,-4.736,10.31,6.25,2.965,6.872,7.341,2.066,-1.338
'0:04.922',3.385,10.157,10.395,-4.935,-4.737,10.322,6.25,2.965,6.916,7.355,2.076,-1.329
'0:04.926',3.383,10.184,10.425,-4.947,-4.753,10.351,6.245,2.961,6.915,7.339,2.061,-1.359
'0:04.930',3.371,10.181,10.433,-4.939,-4.764,10.354,6.25,2.958,6.908,7.327,2.043,-1.378
'0:04.934',3.381,10.162,10.404,-4.936,-4.744,10.329,6.249,2.962,6.89,7.329,2.051,-1.365
'0:04.938',3.391,10.15,10.382,-4.934,-4.728,10.312,6.252,2.968,6.866,7.349,2.074,-1.333
'0:04.942',3.369,10.142,10.397,-4.919,-4.746,10.316,6.253,2.969,6.87,7.354,2.08,-1.331
'0:04.946',3.362,10.169,10.43,-4.929,-4.767,10.346,6.254,2.965,6.918,7.341,2.056,-1.354
'0:04.949',3.378,10.169,10.415,-4.937,-4.751,10.338,6.25,2.963,6.914,7.318,2.037,-1.381
'0:04.953',3.354,10.16,10.429,-4.921,-4.769,10.341,6.262,2.97,6.899,7.337,2.059,-1.352
'0:04.957',3.387,10.151,10.387,-4.933,-4.732,10.315,6.266,2.985,6.878,7.356,2.081,-1.323
'0:04.961',3.405,10.144,10.362,-4.939,-4.711,10.3,6.256,2.97,6.882,7.35,2.078,-1.329
'0:04.965',3.372,10.172,10.424,-4.936,-4.758,10.344,6.261,2.967,6.935,7.356,2.069,-1.344
'0:04.969',3.373,10.184,10.435,-4.942,-4.764,10.356,6.256,2.967,6.942,7.337,2.05,-1.366
'0:04.973',3.378,10.159,10.405,-4.932,-4.746,10.329,6.258,2.972,6.879,7.338,2.053,-1.363
'0:04.977',3.39,10.134,10.367,-4.925,-4.72,10.297,6.256,2.969,6.902,7.347,2.062,-1.348
'0:04.981',3.378,10.127,10.372,-4.916,-4.729,10.296,6.265,2.983,6.888,7.364,2.081,-1.332
'0:04.984',3.364,10.157,10.416,-4.924,-4.758,10.332,6.277,2.994,6.908,7.351,2.048,-1.368
'0:04.988',3.362,10.159,10.421,-4.924,-4.762,10.336,6.311,3.041,6.889,7.286,1.961,-1.464
'0:04.992',3.375,10.128,10.377,-4.915,-4.733,10.299,6.338,3.095,6.874,7.317,1.96,-1.493
'0:04.996',3.461,10.085,10.247,-4.937,-4.625,10.212,6.378,3.197,6.817,7.422,2.032,-1.458
'0:05.000',3.48,10.066,10.209,-4.937,-4.597,10.184,6.402,3.272,6.799,7.62,2.194,-1.377
'0:05.004',3.544,10.122,10.202,-4.996,-4.561,10.208,6.365,3.263,6.824,7.992,2.517,-1.18
'0:05.008',3.613,10.194,10.205,-5.067,-4.528,10.246,6.243,3.155,6.819,8.466,2.985,-0.87
'0:05.012',3.671,10.275,10.228,-5.136,-4.511,10.298,6.075,2.941,6.866,8.942,3.516,-0.464
'0:05.016',3.712,10.357,10.269,-5.198,-4.511,10.359,5.886,2.689,6.902,9.463,4.118,-0.001
'0:05.019',3.651,10.442,10.414,-5.21,-4.614,10.475,5.754,2.457,6.985,9.671,4.346,0.228
'0:05.023',3.521,10.523,10.625,-5.185,-4.785,10.621,5.657,2.26,7.105,9.55,4.268,0.27
'0:05.027',3.404,10.495,10.714,-5.113,-4.887,10.65,5.527,2.011,7.118,8.515,3.597,0.02
'0:05.031',3.25,10.414,10.788,-4.995,-5.001,10.647,5.53,1.938,7.101,7.022,2.36,-0.613
'0:05.035',3.231,10.341,10.734,-4.949,-4.984,10.584,5.597,2.04,7.055,6.82,2.017,-0.908
'0:05.039',3.253,10.321,10.692,-4.95,-4.952,10.552,5.677,2.186,7.064,6.976,2.102,-0.891
'0:05.043',3.267,10.332,10.689,-4.963,-4.943,10.557,5.782,2.334,7.065,7.074,2.142,-0.908
'0:05.047',3.262,10.355,10.717,-4.972,-4.96,10.582,5.892,2.47,7.064,7.1,2.099,-0.995
'0:05.051',3.288,10.365,10.7,-4.99,-4.939,10.579,5.992,2.59,7.041,7.162,2.106,-1.04
'0:05.054',3.325,10.35,10.648,-5.001,-4.894,10.546,6.061,2.683,7.039,7.232,2.14,-1.028
'0:05.058',3.332,10.361,10.652,-5.011,-4.892,10.553,6.072,2.698,7.042,7.272,2.17,-1.001
'0:05.062',3.297,10.372,10.698,-4.998,-4.933,10.581,6.1,2.719,7.068,7.294,2.167,-1.03
'0:05.066',3.288,10.381,10.717,-4.998,-4.946,10.596,6.125,2.744,7.085,7.275,2.109,-1.126
'0:05.070',3.287,10.337,10.673,-4.976,-4.925,10.551,6.145,2.77,7.051,7.25,2.061,-1.19
'0:05.074',3.31,10.288,10.601,-4.963,-4.878,10.491,6.16,2.796,7.003,7.263,2.068,-1.206
'0:05.078',3.33,10.245,10.538,-4.951,-4.836,10.438,6.175,2.821,6.973,7.275,2.073,-1.203
'0:05.082',3.333,10.249,10.539,-4.955,-4.835,10.44,6.18,2.836,7.022,7.289,2.079,-1.19
'0:05.086',3.305,10.275,10.594,-4.953,-4.877,10.48,6.187,2.838,6.998,7.284,2.079,-1.202
'0:05.089',3.302,10.286,10.608,-4.958,-4.886,10.494,6.187,2.841,7.016,7.267,2.061,-1.229
'0:05.093',3.325,10.266,10.565,-4.959,-4.852,10.462,6.183,2.837,6.989,7.271,2.059,-1.226
'0:05.097',3.338,10.24,10.525,-4.953,-4.826,10.429,6.184,2.846,6.964,7.282,2.078,-1.207
'0:05.101',3.314,10.252,10.561,-4.946,-4.856,10.452,6.197,2.849,6.978,7.301,2.088,-1.186
'0:05.105',3.304,10.293,10.613,-4.962,-4.887,10.5,6.204,2.859,6.976,7.308,2.1,-1.193
'0:05.109',3.341,10.302,10.584,-4.985,-4.854,10.489,6.192,2.846,7.015,7.277,2.063,-1.218
'0:05.113',3.337,10.284,10.571,-4.974,-4.849,10.474,6.19,2.842,7.006,7.279,2.067,-1.214
'0:05.117',3.351,10.268,10.541,-4.973,-4.827,10.451,6.191,2.848,7.02,7.301,2.092,-1.19
'0:05.121',3.34,10.263,10.547,-4.965,-4.836,10.451,6.193,2.852,6.977,7.313,2.107,-1.165
'0:05.125',3.327,10.298,10.595,-4.976,-4.866,10.493,6.198,2.851,6.99,7.314,2.104,-1.175
'0:05.128',3.325,10.326,10.624,-4.988,-4.882,10.522,6.199,2.842,7.049,7.298,2.084,-1.192
'0:05.132',3.333,10.312,10.602,-4.987,-4.866,10.503,6.199,2.841,7.014,7.291,2.083,-1.194
'0:05.136',3.34,10.28,10.564,-4.974,-4.844,10.469,6.201,2.846,6.981,7.305,2.099,-1.173
'0:05.140',3.345,10.282,10.561,-4.977,-4.841,10.468,6.198,2.846,6.995,7.323,2.12,-1.145
'0:05.144',3.324,10.305,10.604,-4.978,-4.872,10.5,6.196,2.854,6.973,7.325,2.121,-1.144
'0:05.148',3.312,10.337,10.648,-4.988,-4.9,10.539,6.194,2.841,7.012,7.311,2.103,-1.17
'0:05.152',3.322,10.321,10.622,-4.985,-4.883,10.518,6.194,2.84,7.019,7.301,2.1,-1.169
'0:05.156',3.329,10.296,10.591,-4.976,-4.864,10.49,6.194,2.846,6.988,7.317,2.116,-1.156
'0:05.160',3.319,10.288,10.593,-4.967,-4.869,10.487,6.195,2.855,6.99,7.333,2.136,-1.119
'0:05.163',3.319,10.323,10.627,-4.985,-4.887,10.522,6.196,2.858,6.998,7.343,2.151,-1.112
'0:05.167',3.311,10.347,10.659,-4.992,-4.906,10.549,6.19,2.844,7.052,7.323,2.12,-1.137
'0:05.171',3.303,10.333,10.654,-4.982,-4.908,10.54,6.196,2.851,7.022,7.321,2.127,-1.138
'0:05.175',3.328,10.327,10.622,-4.99,-4.88,10.521,6.188,2.856,6.999,7.337,2.144,-1.111
'0:05.179',3.337,10.323,10.609,-4.993,-4.868,10.512,6.197,2.862,7.016,7.354,2.173,-1.075
'0:05.183',3.326,10.337,10.635,-4.995,-4.887,10.532,6.199,2.867,7.028,7.365,2.183,-1.067
'0:05.187',3.313,10.366,10.676,-5.003,-4.914,10.568,6.191,2.859,7.048,7.354,2.168,-1.094
'0:05.191',3.327,10.368,10.665,-5.011,-4.901,10.563,6.197,2.863,7.065,7.348,2.161,-1.099
'0:05.195',3.331,10.352,10.644,-5.005,-4.889,10.544,6.202,2.868,7.041,7.367,2.176,-1.075
'0:05.198',3.345,10.347,10.625,-5.01,-4.872,10.532,6.202,2.881,7.054,7.388,2.211,-1.035
'0:05.202',3.333,10.36,10.65,-5.011,-4.89,10.551,6.209,2.893,7.042,7.399,2.216,-1.024
'0:05.206',3.313,10.396,10.706,-5.018,-4.929,10.598,6.209,2.89,7.081,7.406,2.22,-1.036
'0:05.210',3.315,10.405,10.714,-5.024,-4.932,10.606,6.215,2.895,7.067,7.402,2.211,-1.043
'0:05.214',3.332,10.39,10.681,-5.025,-4.907,10.582,6.218,2.914,7.052,7.415,2.228,-1.02
'0:05.218',3.345,10.371,10.649,-5.021,-4.885,10.556,6.22,2.93,7.024,7.442,2.247,-0.996
'0:05.222',3.35,10.388,10.662,-5.033,-4.889,10.572,6.231,2.951,7.066,7.467,2.285,-0.975
'0:05.226',3.323,10.418,10.719,-5.034,-4.93,10.615,6.235,2.945,7.083,7.466,2.272,-0.988
'0:05.230',3.34,10.433,10.717,-5.05,-4.92,10.622,6.247,2.965,7.109,7.466,2.265,-0.999
'0:05.233',3.351,10.417,10.69,-5.047,-4.902,10.599,6.247,2.974,7.077,7.48,2.28,-0.986
'0:05.237',3.376,10.398,10.646,-5.05,-4.867,10.568,6.254,3.001,7.059,7.504,2.305,-0.956
'0:05.241',3.372,10.406,10.658,-5.053,-4.875,10.578,6.259,3.013,7.07,7.532,2.337,-0.928
'0:05.245',3.356,10.442,10.709,-5.062,-4.909,10.622,6.27,3.028,7.098,7.544,2.337,-0.939
'0:05.249',3.356,10.447,10.714,-5.065,-4.911,10.626,6.275,3.038,7.123,7.533,2.325,-0.96
'0:05.253',3.382,10.432,10.673,-5.071,-4.878,10.599,6.28,3.056,7.08,7.545,2.325,-0.959
'0:05.257',3.379,10.411,10.655,-5.059,-4.87,10.579,6.295,3.085,7.04,7.578,2.358,-0.93
'0:05.261',3.374,10.403,10.653,-5.052,-4.872,10.574,6.309,3.106,7.066,7.603,2.378,-0.918
